-0.579892573409742 -0.384030816072608 -0.539097646345338 -0.247167101757954 -0.0879203432549728 -0.423139828781879 0.204964853474629 0.266154009473698 0.339069139419548 0.525259431528931 0.365357198597303 -0.00718530020092392 -0.408172547010551 -0.488545343450523 -0.165429908531347 -0.269502289991820 -0.697962228375058 -0.442298722671551 -0.147251108971225 -0.313346758924393 -0.752002830173040 -0.644469241684624 -0.298844500354411 -0.627623109926517 -0.0303736773415819 0.0563485476849100 -0.183342019932441 0.164205573116087 0.0627323176028068 0.0704273775737914 0.0295293040236513 0.107328042365262 -0.105772533622631 -0.0122921725648916 0.194465308202616 0.662821127772168 0.325489091102716 0.274523194205600 0.551604212509643 0.575013008358035 -0.0815982353360079 0.307369399406780 0.233938928889960 -0.249107823519811 -0.173977547681994 -0.417605193715580 -0.0850489348594761 -0.197141818806608 0.0259608751012853 0.573356458990062 -0.225380681852432 0.00945024057389835 -0.0451546031024729 -0.0900742093388319 -0.302803134393375 -0.0122962302897549 0.0883912251052061 -0.366832582417049 -0.0739827182790920 -0.0353850822387895 -0.0281263018511487 -0.223566780823149 0.192038838304580 0.583779161852790 0.303585182805556 -0.0312127949015718 0.179006897744167 -0.184779742628155 0.0418679323062902 -0.508496355133298 -0.106838591317672 -0.474465610734582 -0.226597785473390 -0.351320479828595 -0.270895875553517 -0.107275830552365 -0.422370680566149 -0.0187463115263598 -0.416003166187648 -0.368359151151134 -1.45870262560809 0.523810817973904 0.0500227345015880 0.122926259770368 -0.255794679297527 -0.217676941816416 -0.0672378008607851 0.161499478138507 0.0950359399439526 0.0116296871254268 -0.0618910249308937 0.0788425402880791 -0.0892909304772574 -0.0147284548314470 -0.371022792194632 -0.313375119313733 -0.0913216742169776 -0.104496764557724 -0.452373683921827 -0.626667107618859 -0.593053435128879 -0.451790279855657 -0.270307203400135 -0.975936620022799 -0.832146749303415 -0.500454378091230 -0.466081046779499 -0.433440498362347 -0.565822670509794 -0.375511566721812 -0.236514041835661 -0.0854192563533964 -0.370499573501136 -0.0820557484124978 0.671201795817902 0.207371098121136 0.182809166469226 0.164835251256125 -0.153579721157704 0.134871243346766 0.567016819875449 0.496528068121298 0.212335964333853 -0.227830080703009 0.178720222837190 0.138728561642172 0.213509151349375 0.372263778591796 0.422309959284818 0.461050425110285 0.246515842146664 0.0116461413301690 0.168801497154263 -0.249074051447302 -0.260891328778580 -0.150362490642300 -0.295505536319799 -0.448492612109097 -0.147105608241558 0.685173289645175 -0.374358637673755 0.268496143796310 0.299200884170632 -0.131881872235469 -0.434073750194122 -0.213474739306137 -0.0106111100939127 -0.149516052000209 -0.233873283781405 0.116175739542835 -0.0670980848844792 -0.122639634748910 0.283206316378066 -0.200537960223584 0.0266362065375438 -0.113266418444099 0.165929919107073 -0.294409747120332 0.183527877445828 -0.280954758349624 0.0513931255117431 -0.139716594058554 -0.0575299070070419 -0.266889544092482 0.139137593899537 -0.0640331904631583 0.227405631340977 -0.405113255266477 -0.446721871512960 0.00747927038420978 0.115608625006914 -0.0777084024265273 0.0867030835268364 -0.137904492571150 -0.357364044577087 -0.471243867039983 -0.404975999066665 -0.541193045759060 -0.627767622397259 -0.428116365854246 -0.305726099139647 -0.244788699088643 0.0780692736960414 -0.0676771438511792 -0.105009201496206 -0.361293718820302 -0.105069096116297 -0.435767598535306 -0.407745506111745 -0.176654023107008 -0.176798850856680 -0.107185902912243 -0.178677677726530 0.0465695689542961 0.589263325765897 0.757197381668651 0.121836270348702 -0.190855441768358 -0.0826487737043710 -0.101943473438711 -0.0414157721138392 0.202626145268389 -0.229518123165898 -0.192540691192057 -0.00538272234506718 -0.261054843503595 -0.305227561852486 -0.194341965739504 -0.145727877951765 -0.315598976157543 -0.285763076468712 -0.0296135160076564 0.111403855559327 0.192973285612364 0.279603606101859 0.296089625323132 0.472698359243037 0.430626766170672 0.360164584687136 0.186867206989916 0.237538776698159 -0.0923738118160955 -0.499045665652887 -0.802488184281512 -0.239698925500731 0.0510350749945555 0.664235144666776 -0.915509268984533 -0.580844100810435 -0.207567752244739 -0.0206889132178870 0.0150903247500770 0.148593408075822 -0.0818002050396550 0.117992874438313 0.401350897554407 0.120424783462766 0.122172202598024 -0.0391895402117935 0.120376555898999 -0.0559562288415870 0.271275433384374 -0.107254729207013 0.371814244404038 0.0871573756984044 0.219759489117236 0.156977745804087 0.103958019041547 0.172815089115962 -0.116888309541854 0.0266207652966485 -0.272065479125462 -0.446577768683171 -0.617116828613519 0.232383503947878 0.193020193820423 0.0981387434779817 -0.0397846197309638 0.0469429568866422 0.224840560542981 -0.430346327530370 0.471227429407722 0.151314016300667 0.152849414661928 -0.0349944225915017 -0.247414597172728 0.203738903506270 -0.00659470425812053 -0.281004026547510 -0.273942453063823 -0.178132250659968 -0.254032029001579 -0.472648264708278 -0.256205302036919 -0.389668460252575 -0.109843601537834 -0.210608049074266 -0.234807643420288 -0.312644154576128 -0.944423957230502 -0.121191105646093 0.505542885713353 0.408902254852374 0.179246177422378 0.121143240682777 0.174143821307819 0.105997076335074 0.295839339921166 0.186758441015790 -0.133065047576713 -0.444375843722657 -0.0652613274335368 -0.399587214575705 -0.301390817767420 0.0697488140358811 -0.0384351250879043 -0.154221477147327 -0.593965262165562 -0.524858021540790 -0.496504618041812 -0.212818407057715 -0.309670040774861 -0.184015485854437 -0.180141163158608 0.0286934039630501 -0.0647442140306515 0.265745401833268 0.180937489817124 0.356396503214789 0.0420598299490666 -0.275263118243521 -0.320522718097486 0.926941516626332 -0.271792338185996 -0.390459792174002 0.0663476168305619 -0.473651491002065 0.0198543206648382 -0.201023544448110 -0.248586586342298 -0.129922844457220 -0.196410830495350 -0.190735704481612 -0.113883119877203 -0.176140079463182 -0.170862005326766 0.0586215897208259 0.0180297274512446 0.0387818141532631 -0.355937865266088 -0.0852865361881712 0.145663777164932 -0.119396653097585 0.0286828868770677 0.284903004452748 0.153011327021447 0.425127619544538 -0.289001856398368 0.262691831137052 -0.160906227690113 -0.260084460862320 0.272224035775739 0.232535679716704 -0.0901711622315006 0.164762398375468 0.125032343009816 -0.185736604242694 0.00738107273508153 -0.718465272043871 -0.310421348711930 -0.157814751789865 0.513759555858545 0.514500660580580 0.680943458483989 0.595642603150796 0.541271497122769 0.127640241953585 -0.301851837031860 -0.541541676909664 -0.590634751947934 -0.220581283214991 -0.174415157033619 -0.0408565423527935 0.626935411180396 0.109246481302370 -0.492833986571537 -0.609252821350137 -0.159399839489638 -0.210741683674561 0.237700700740211 -0.0871400041487528 -0.387270587426908 -0.467778245910709 0.476445636110899 0.487413381017992 -0.964218346880453 -0.990011654318197 -0.727599910601050 0.248344793725707 0.143152808090668 -0.0316853793404911 0.0535679626730602 0.0542860604272786 -0.620053537111370 -0.00680842592821172 0.242613262658347 0.138604844264037 -0.382127316518740 -0.377693344428598 -0.539195610029248 -0.180298901756691 0.0173851708951644 0.246474122815913 -0.142657542277476 0.570695806014359 0.677819043979387 0.523565462211715 0.611055366230803 -0.416448033876715 -0.457023795250757 -0.0555574417511337 -0.199001881904060 0.576790843335110 0.0859977281992162 -0.0357365372182250 0.489620808613401 0.694916489433236 0.328842097495869 1.06269248125317 0.666365044158747 0.0726091800517100 -0.150472292866574 0.172188479052468 0.254188537471148 0.293034874739054 0.118371995155477 0.563641558657827 -0.00813126935833544 -0.293868207705964 -0.365311025007575 -0.836282008658899 0.197763818290646 -0.898081122302362 -0.0274082931666667 -0.748815514637864 -0.427570982960612 -0.244217177160097 -0.0775842955974562 -0.206686116850206 -0.727411600359469 -0.309276768719649 0.0585573961496885 -0.770049202561878 -0.239220598075570 0.300058392290729 0.311009115701274 -0.0927967900765273 -0.150527773045395 -0.505843967961748 -0.343538302404019 -0.275692940196326 -0.239959768192788 -0.632125232215418 -0.700515451300296 -0.595031361867054 -0.309816037721806 -0.0642035057588661 0.311988431169834 0.469733174549536 0.388999056968448 0.0486486943991298 -0.246135118415461 -0.478429294232386 -0.418115178572884 -0.170844658424591 0.224660715556016 0.522013887758554 0.619428116119431 -0.256933900270754 -0.151449922464548 -0.133140986486144 -0.197765048527095 0.365066116739890 -0.257386615104217 0.0866424348395653 0.417656225699272 0.294093833658030 0.391605766529348 0.367185750190885 0.0998791986864600 -0.0782242755233498 -0.150760120346764 -0.321618728536880 -0.121328767805263 -0.190239770187995 -0.0776998467804363 0.0692069781583752 0.0337464354916245 0.135530555305251 -0.319875938056208 0.128848217736368 -0.241900924199674 -0.119256042129998 0.0877765668255829 -0.0725447831864723 0.0906349347196871 0.0669960895043422 -0.656913597842278 -0.130700007075613 -0.309716079710516 0.200270584844274 -0.140247318343552 -0.0542059303733696 -0.240726453448258 0.0100718979465765 -0.0175213709312587 0.0169532551719332 0.337579890096783 0.0612399117241054 0.336852241930010 -0.0428094936230336 0.106909605059233 0.241728102793929 0.213616401049108 0.0591034531461973 0.00201220472481553 0.0728192675350875 -0.409639165576525 -0.125295878259865 0.0419405517303310 -0.372486994632708 -0.0760453816691415 -0.0467547039953008 -0.563160325719651 -0.444842907393341 0.0215465403931115 0.620050125855011 -0.164183418704897 -0.109246142934078 -0.621444249534795 0.342002616298632 -0.264967797821976 -0.301052824766987 -0.364616756785290 -0.109825652030750 -0.0759657285091748 -0.287779405083707 0.167061552496584 -0.0642298220438824 -0.166057429205884 0.0540510995520717 -0.392652296861679 -0.406827919149237 -0.330896460327078 -0.397789072874944 -0.773065654815617 -0.204726396197710 -0.167472598566378 -0.469651254878160 -0.692530376058132 -0.338110180705211 -0.356396172084724 -0.0648041844533829 0.0932868756822168 0.251222939144677 0.388474335307187 0.265982211653159 0.306760944357583 0.305069088142925 -0.223927593219496 -0.770202364311118 -0.330891662203054 0.280442521875222 0.332913909969907 0.481859344089451 0.424628935433425 -0.0597398550403589 -0.384054942311670 -0.458050747900448 -0.232027060415153 -0.330437992389348 -0.644512550385906 -0.348489527971594 -0.287847504035039 -0.204875128315828 0.0121647861518397 0.194212657497794 -0.103542254046850 0.00210011868624179 0.00453272288776930 -0.0116239064820388 -0.0458453953794643 -0.0570590523807505 -0.0901360965172380 -0.317766565864657 -0.807233967020380 0.103078969557325 0.0981360777961268 0.00925883517243170 0.289017026144633 0.280713252607131 0.130576365729009 0.189855230338655 -0.00749395907186338 -0.00763679319560091 -0.569165700560601 -0.0465689076076874 -0.0126898471782720 -0.111856722474511 -0.186559680645262 -0.372680046613733 -0.137180047099880 -0.0643057887087050 0.0190861529628175 0.282955421788803 0.0818731117155759 -0.260977075795420 -0.413013405486860 0.0425146627628658 0.00488893089442748 -0.326735666435280 -0.548229204891674 2.26244744988376 -0.00902878178347023 -0.415617720145975 -0.0677239377657602 -0.278969699920559 -0.0203266052680420 1.03334010994428 0.616895255314849 0.378462218623048 -0.221714130462412 -0.522679017803688 -0.248249932890600 -0.409656331088933 -0.365374144062019 0.0491008053073883 0.0569125611157207 0.203151867277238 -0.0864133568788715 -0.229972729808858 -0.144728641021554 -0.219307633830254 0.196988430538381 -0.00777979171468350 -0.0803081828098850 -0.355389810515261 -0.548304740734435 -0.0807938832103867 -0.0287809592960957 0.160745558806830 0.287056737350753 0.201884403909415 -0.116856940412708 -0.220017868926719 0.0826326470218018 -0.309671764309207 -0.475203842897403 -0.486858991520380 -0.425238530951660 -0.569015578482342 -0.385387407947775 -0.601680650304937 -0.617907909951217 -0.377042458405558 -0.580175972182378 -0.190355552102230 0.0970475009140868 0.184182870231578 0.242578264653117 0.265340302672861 0.401840214633601 0.469061199558328 0.496114219547138 0.483039713833654 0.577717633549931 0.297817776867797 0.324068361894976 0.370684950898849 -0.277136118821877 0.343781196213255 -0.213164345361654 -0.259809404446283 -0.338141017291801 0.197430269661163 -0.201583479210135 0.0832448076212761 -0.0205295765584971 -0.128943613521610 -0.109663306389456 -0.238884464487739 -0.244605297910772 -0.144133652007176 -0.0753951069373775 -0.0380650731997860 0.192671661582582 -0.0284338974974413 0.396335135126574 0.398529087542859 0.157938257736192 0.238653528311550 0.0784418305742583 0.197809687939385 0.0164224165440833 -0.377236664523117 0.0310467976132112 -0.0651383070570658 -0.723744825199438 -0.705573707031010 -1.23471529758721 0.0601413022257823 -0.607686840256538 -0.554308966745701 -0.591527854769384 0.707523206206604 -0.0932222254134245 -1.10342073613956 -0.706936684366630 -0.153306668923523 0.0923901306671752 -0.0234929677209674 0.0769951273141617 -0.149355431949125 0.401692436388687 0.784922189385700 0.108491172272707 0.523778114653271 0.647360009299163 0.171407867814980 0.0485412074798525 -0.0864448532729186 -0.348518252708093 -0.702176438623009 -0.276544389750450 -0.244995682996698 0.243011455894726 0.673081197873678 0.334042295762440 -0.0268274052331711 0.363248610619289 0.124603458034375 0.538801323872303 0.220202314620639 -0.557753439030085 -0.615243804714625 -0.620345726375715 0.0729772457529078 0.287400603066220 0.294739031231427 -0.0167842096178355 0.468927616065543 0.228660083022519 0.426653736153582 0.305042971851599 -0.135484428844514 -0.731602495734191 -0.625205768632198 -0.609116082036154 -0.470372855729219 -0.337222752129347 -0.242202727043532 -0.610401149111862 -0.292665070566500 -0.170942149090408 0.0679429789388312 0.285996289230530 -0.677212389225949 0.0155474196770854 -0.0675283669726747 0.455082771571928 -0.0660668076821979 0.489370744893470 0.206186328849438 0.247747985192475 0.445609984557838 -0.0502388480574009 -0.0762277347657741 -0.479539016288566 -0.197473607518561 -0.188816086463588 0.201468846903164 0.379475333014690 0.501960005126143 0.337414041404920 0.382985602537271 0.0676996672221085 0.258783076082801 -0.441119987137507 0.232964419170773 0.0527676874594764 -0.206818645235634 0.185741867490221 -0.305000382786529 -0.0838959586136878 -0.141986969190649 0.221526053901896 -0.666320418354934 0.00174445838324270 0.0101082515527466 0.0934672378486812 -0.539571439364912 0.0575912118164826 0.831206202007726 -0.490587539897638 -0.394257238090813 0.142218286587255 0.0967429893385718 0.247671003396852 -0.274612991525204 -0.183864142070427 -0.441047664521769 -0.457434765510028 -0.475892754698291 -0.202108884384925 -0.223305322919954 -0.490703435680379 -0.296569973664704 -0.519549190956320 -0.729811525082043 0.0152591517931375 -0.0753896405809810 0.197264831578987 0.766755628648379 0.506472665440955 0.787520942410694 0.600688295387933 0.304318001804931 -0.402547643849016 -0.224452899439009 -0.244523323892557 -0.117506567939306 0.912676338143498 0.647246352631634 0.323147306620674 0.595076845276196 0.0826108036923335 -0.318686194486276 -0.184450724855951 -0.344435091644073 -0.585706798982018 -0.518337388180409 -0.538651552227796 -0.569223502713638 -0.320134855706837 -0.339471752171712 0.120105723133591 -0.183828529101685 0.0268172837708841 -0.00180637542062618 -0.100846823321560 -0.277120284165244 -0.747874794492544 -0.409343384691629 0.883278102945118 -0.231759979563993 0.712663560598485 -0.568493236053578 -0.913263251779720 -1.52021650968094 -0.926870945012851 -0.478700352457767 0.0739635058500542 0.145470105650035 0.0114532928089941 -0.0290980727662516 -0.182507730181422 -0.357170957654981 0.0843935532089567 -0.113302461119152 0.263579291656570 -0.119943021285455 0.723524591509123 -0.350135263446825 0.520277401252527 -0.0515227513433858 0.285719584042521 -0.0942928990569053 0.204826530107517 -0.361021522816772 0.333879759297747 0.312753752572232 0.211846291918670 -0.222271514976693 0.618522869501715 0.260126903269234 0.110576380526564 -0.218855064729876 0.244041694893753 -0.582918344543067 0.385158578184870 0.161243745724924 0.193987208142195 0.161248448652340 -0.0221628876508657 -0.287062595937064 -0.00765453344846277 -0.235383212015766 0.158143237841102 0.0843824904514517 -0.142626537622573 -0.0907912182339702 -0.0121243873394732 -0.380993911659001 0.0692834494764307 0.632894984425077 0.476199740141013 0.218390663258398 -0.470359735325859 -0.290489326350046 0.703129194716126 0.809495854328817 0.260474320572761 -0.171880393012543 -0.659831543793694 -0.601315869548839 -0.706754858981178 -0.152346370330324 0.180337776872788 -0.912961012679076 -0.886430972462559 0.0937165166779092 -0.0219222020835927 0.424184796449201 0.926200314952366 0.371361547679143 -0.393807839790677 -0.0455115964450229 -0.0210345319651463 -0.0858996872620410 0.103332527897058 0.0575991810476252 0.163796049908591 0.336036227366606 0.247513141826844 0.0949100780135805 0.483180977619060 0.177566719872850 0.281792555129262 0.0968285562919046 0.147723899289231 0.808577168819570 -0.462673702662045 -0.652561334203091 -0.921313925332520 -0.0188298298097273 0.381014784478302 0.0843465689886376 -0.247132032327828 0.259411272688965 -0.261052025050756 0.162738908190049 -0.0464052700327018 -0.0489955516267678 -0.303044202842646 -0.105008516757782 -0.211178649819102 -0.154292601367273 -0.121631713548355 -0.387366573868683 -0.231472732231595 0.0680672033924017 0.0404055493647926 0.221259844142316 -0.221100022744831 -0.0228616001664215 -0.260911805277419 0.484828776070431 0.0718097254915595 -0.562523496993617 -1.11935952005358 0.402709092298577 0.432765680151539 -0.755504798748510 -0.419132615960407 -0.828087886910379 -0.139715387700183 -0.0845583776208109 0.336099138975235 0.0673573506319050 0.0983485812392950 0.0424520574565110 -0.0740386200706109 -0.184766357030634 -0.216438362507404 -0.150297277380219 -0.408181578779996 -0.561051840434571 -0.272106895984903 -0.201476502735054 -0.845896153499886 -0.597137688772451 -0.319025302753616 -0.572900196604591 -0.570095893784154 -0.177448388557689 0.0626180843269057 0.360509447950732 0.277730456589059 -0.582963311101305 -0.467773941490123 -0.0137817187116952 0.299076647509982 0.125796757571084 -0.145936049526729 0.201461133217462 0.0427306247609606 -0.0428858130847331 -0.172310266548912 -0.271191276498611 -0.156748794926635 -0.378805807920566 -0.105479641955885 -0.106441166482561 0.300271104413015 0.389259172542319 0.279253985459807 0.241179847176602 0.382719276264215 0.330859210281353 0.394435426562584 0.0534122778455804 -0.0256412577425942 -0.135232393970004 -0.307015380716932 -0.300633586465933 -0.113093230367913 0.180249431218403 -0.0252728860263277 -0.372356369409459 0.103471509894947 -0.224754035186519 -0.204422097035957 0.423530392634184 -0.119253398164796 -0.00407922543170121 0.0846212426890880 0.0571803778808731 -0.0804739937496790 -0.0422839304185901 0.105319844389631 -0.105260702457022 -0.109781056415942 -0.214744759500906 -0.118064487113353 -0.136263062680755 0.349063398398454 -0.179854296893861 -0.0527150052562412 -0.253045805032177 0.105170938338530 -0.213339174457601 0.259056687992001 -0.368548184165750 0.0332918469143651 -0.231975112713249 0.123156882382812 0.229888815055954 0.752377084981851 0.299507515123811 0.118761694646535 0.383002342906359 0.0175538610786035 0.262952629916958 0.163352406897862 0.117034979905244 0.0352277286383947 -0.0389130806437485 -0.141896917621166 0.0267134979383765 0.0103495134564901 -0.0605405222621451 0.203162904630774 -0.0113570491838190 -0.296762788650893 -0.198959138766879 -0.0398391787990012 -0.380561282641606 -0.277522410929223 -0.0626792415681076 0.0196345749463207 -0.315463688321749 -0.464566076167755 -0.304165969051975 0.226182094103036 0.0646345711361923 0.00948320173993239 -0.201449768756980 -0.326434250210918 -0.254250218040917 -0.558783049792270 -0.559511810917201 0.151928146209137 -0.0686708511326997 -0.327994308386432 -0.120565749498296 0.420096144334290 0.385861705653434 0.248210041872200 0.205232142707426 0.459527193926771 0.180032815760089 0.318260756302171 0.367636402876541 0.164902578742394 0.171912342905439 0.154459978190836 0.244298503175969 -0.0415977239433994 -0.117580613908305 -0.0301598110942926 0.168755397579187 -0.0129296600872893 0.196142919585023 0.268795401201181 0.00734365112154342 -0.0702516483454632 -0.626214541640792 -0.00308087571329851 -0.0456123275060447 0.103827898125097 -0.00838774549697315 0.129255039858718 -0.0134734780131897 -0.186457809759733 -0.288985090303266 -0.325102793791758 -0.101431710384827 0.0682656491770162 -0.0893710126996001 0.184376403272479 -0.113848139198813 -0.238066557878623 -0.209467074423902 -0.457000785360046 -0.310381576426269 -0.186574873471911 -0.268825187713928 -0.137169101146677 0.0115590856223061 -0.132644975013056 -0.0399350311598523 -0.0964125339640006 -0.570025808825532 -0.472355657503372 -0.589321913385308 1.54670300270739 -0.250453588584739 -0.556900753750454 -0.00121456357080606 0.0650805170293269 -0.154376756638739 -0.261138532453650 -0.00226173093711193 0.0685848308410437 -0.122390700735587 -0.232650081495916 -0.0866897538499866 -0.192214384136532 0.179904927451028 0.327825859023479 0.465561931303016 -0.00703323778210274 0.145502583528079 -0.101203696509600 -0.162652698503540 -0.271143562795714 -0.265890217521575 -0.220244587753415 -0.337461283219498 -0.166708034923906 -0.281587369899344 0.404056144828247 0.379441331406458 0.0409523934656008 -0.383459809621190 -0.521444583537680 -0.546628187005598 0.0192419431151281 -0.112981072841647 0.558713003144002 0.404277721068209 0.683250568205827 0.404177102283046 -0.186009801560243 -0.231681265870200 -0.217423979652313 -0.139630461809834 0.0832112934361647 0.103133477041395 0.162544757157384 0.0208313835092295 0.0407397104888527 -0.101537018159515 -0.187163183558123 -0.135066162555557 -0.193350523646417 0.0526091521538659 0.316269958097943 0.188437850117353 0.0844540399643292 -0.228751317551086 0.152815668616839 0.156383355797640 0.357518840964506 -0.0300436487566374 -0.745254687088540 -0.978320257998055 -0.330647030691331 -0.304929661831496 -0.0985194830169593 -0.211938783275127 0.280719394902338 0.0948603723842947 -0.107121857980420 -0.554579671777704 -0.549702014620169 -0.295957008477404 -0.0399233564371733 -0.407445480534935 -0.126820590246589 -0.206392631791568 -0.136365961028909 -0.125224580722223 0.468957977480419 0.0593559498517598 0.256024662299418 -0.255904067809724 0.345493179965166 0.384344978796873 0.00936194999324859 -0.625262347709491 0.324109240499449 0.831312907462760 -0.345803826556747 -0.382958571909111 -0.461363169775996 -0.447224826319568 -0.504292265858310 -0.461932337902258 -0.230979046571694 -0.321541332240443 -0.145992280194153 0.172725310993593 -0.0953900287278131 -0.330993487730668 0.149370444739950 0.0921251978753304 0.110776482214125 -0.233339176511431 -0.129065429552980 -0.279683926013330 -0.117877318596294 -0.134656153425457 -0.0649582026988431 0.161211016772641 -0.206542425501589 -0.338317889254940 -0.741337139876044 0.589853503454341 -0.0147027648412350 -0.979415749418792 -0.351841773657443 0.442310912007767 0.392936937053059 -0.346912543666492 -0.413785797388708 -0.233170462341306 0.107517029867698 -0.229636318787676 -0.533924835828740 -0.0458640254309134 0.261857854680850 -0.174208197561115 -0.492043779974601 -0.596771046575029 -0.512872931673113 -0.832540547220365 -0.480678955822756 -0.0921905932594818 -0.236027499413376 -0.143845544178132 0.280684932241115 0.380200894494955 0.604408528781246 0.533158447071794 0.709226066814762 0.169816804854985 0.510158890027449 -0.264145157734164 0.213400381913007 -0.146662378637364 -0.891601879908653 -0.0374847284506687 -0.534851501255804 -0.0245356456891663 -0.00276250016530723 0.367136182792564 0.645326038675730 0.397570495483497 0.519816038664339 0.0193152143193182 -0.215328296055869 -0.255277867642896 0.0501032289112193 0.277861366296748 0.139501336972663 0.387966322459882 -0.213121249877016 0.284681286679074 0.102896443680256 -0.0361032904855530 0.0991120180674395 0.501718334378619 -0.479768694760651 0.00834661164294960 -0.297372946475017 0.112299418135814 0.0962950026644034 -0.490877177060555 0.947925064692206 0.164402442291620 0.477981496891778 -0.463118976965032 0.0865003990336454 -0.0848397786258158 -0.657873141950495 -0.0184523929488512 0.107712294241856 0.380737052753745 0.144822465229061 0.0260883847366191 0.0328767626257112 -0.386705496826398 -0.524007388512203 -0.531852813372722 -0.324803762722180 -0.267018071542309 -0.275423493533312 0.508395314284024 0.152198165459334 0.0342159603206356 0.0488601118183063 0.0855261337691555 0.0107466875909905 -0.412261775941353 -0.0497694243852148 -0.605517578726311 0.275054719769965 0.402536500137320 -0.0865126705846452 0.134194116405733 0.436389095240737 -1.07605160722957 -0.213227910301366 0.0519404142423550 -0.0995968094755773 -0.0687527041490409 -0.286647880086155 -0.193584657861525 -0.111847041979577 -0.208749448975812 -0.263997741427418 -0.385482527763673 -0.284769812147053 -0.0557074119177578 0.0538872851091986 0.193662274659619 0.191955816598782 -0.0370823502097323 -0.0881692435668094 -0.154341744188540 0.0687429564358051 -0.114338851325326 -0.0112225075321519 0.230123294902548 -0.000287293576208486 0.265286748155442 -0.455092182422867 -0.290512325037056 -0.284820694218189 -0.322391224525052 0.504118996830475 0.0223094370864365 0.0864042984767205 -0.162086705058278 -0.454092902527987 0.149510861755870 -0.0760949984544003 -0.396441328126125 -0.115893710083112 -0.210380732154290 -0.0959883175622402 0.200138375133242 0.0217715932354804 -0.311377592626001 -0.0280346980315678 0.121457907004797 -0.185085039636131 0.0779519829119936 -0.466331553625129 -0.0871622953276249 -0.300490275033440 -0.0389284409934852 0.129320276586666 0.284249667014818 -2.83619802173419 0.458714038226820 -0.0663688798122364 0.0468268239005614 0.831711965755138 -0.156909254209683 -1.00894326685279 0.372857045510160 -0.0678635404429300 -0.0678877102368264 0.0657037667504635 -0.452621046817668 -0.226128852290114 -0.554605982089366 -0.569705967915256 -0.171218327375468 -0.137166703038916 0.316177490405692 0.501227444771827 0.561946499690676 0.174962191544666 -0.0792455550128504 -0.494194741374610 -0.442773161656610 -0.398808390850626 -0.0715365959788794 0.139551812229486 0.0440313010602978 -0.539138206059788 -0.475576688462163 -0.181446537584979 0.554898118731960 0.598406442849315 0.307241229917838 -0.543371146522619 -0.187624324609783 -0.204987647566501 -0.0758212482616999 -0.279112428762943 -0.0785171733037790 0.215462129361386 -0.139817758999810 -0.381183963896847 0.0260918253888944 -0.0360933943566511 0.0533665019180066 -0.269199152387687 -0.155157693922455 -0.359681224325037 -0.264435794584545 -0.255569816889099 -0.272805151144289 -0.00137651164293915 0.0372709408702144 -0.0478087632253575 -0.0906485300219083 -0.248055266116620 0.0766868369258640 -0.364701408364869 -0.469032426601191 -0.0323753791703114 -0.394058606628544 -0.771105919871154 0.541632754621557 0.0726434475276221 0.0236160889268868 0.0547467829218004 0.263159055827964 0.517767691389240 0.0435324405463847 0.265923701362210 -0.286824867318001 0.190438380610539 -0.286390473454742 -0.0574418188653565 -0.0141817142873576 0.113228718663185 0.0365641970557334 -0.0707335479941110 0.286423945538432 0.129063253919923 -0.344379678510009 -0.626112218947944 0.269397227851910 -0.265260815891718 -0.0431341016709978 -0.264268479427062 -0.299784013605652 -0.0726727399239765 0.255773923627903 0.396354242584115 -0.563171068806923 -0.523200870717859 -0.767535909284797 0.309257076352385 0.0896253081932261 0.241481245596438 0.104633405050585 0.178237230258553 0.335901496651848 0.0631360686118703 -0.181986473667987 -0.663537878111742 -0.0563630290360385 0.227182153838187 0.190088178435064 0.263750676606994 0.455585022432318 0.00694671457892162 -0.387154700189035 -0.625118483242396 -0.473459614202336 -0.599452132827803 -0.212979410445718 -0.400690400598806 -0.588854526382399 -0.165081231312760 -0.584431316036182 -0.473762520361879 -0.402290239769344 -0.227781321245546 0.502875517242951 0.158548956527589 0.0609252661083841 0.243104266136569 -0.184611461460565 -0.582123479203399 -0.0750241537365489 -0.171051139763392 0.0512339646229843 0.317437145219180 0.305336917554006 0.551723469616961 0.746087973867181 0.566172458241836 0.290294979808410 0.173826890802495 0.384288742117191 0.0810131707090137 0.348299780019902 0.192908747575660 -0.315880556395376 -0.299958002242033 -0.684941135445204 -0.00411410889254865 -0.585119845355213 0.861761898153845 -0.121715761328923 -0.0893602949846171 -0.319620319241809 0.260611860043998 0.116402572914410 -0.197813492994297 -0.0340312439025046 0.106533803115607 -0.246491122487737 -0.0829665847593340 -0.0430686718991328 -0.278037162910925 0.0793849495138987 -0.339296928918380 0.0579571411794664 -0.473661683096403 0.0904996356774821 -0.966635487303491 -0.363141755998034 -0.535687277399519 -0.308410869257361 0.117503074271316 0.366563622821809 -0.218530301156009 -0.0921629494051352 0.371386823281682 0.318743571808776 0.859161573894009 -0.917977173654710 0.273973374491566 -0.0466545700615532 0.175598388415713 -0.249570883511354 -0.202725403331653 -0.295802726420650 -0.233703972264035 -0.0438696329292544 -0.0814104419334374 -0.0390812782849910 -0.228424361290167 -0.0194182472349203 0.0648726641209014 0.00729506736298133 -0.113970312903744 0.174710348468121 -0.239421297197954 -0.594967961861836 -0.560707876480119 -0.528729738755369 -0.777966744917744 -0.681890161127652 -0.489419180438590 -0.198032798882919 0.0513114508946297 0.219876261102132 -0.234218777662394 0.104764630934979 0.203957299863059 0.262822705826948 0.336910561913703 -0.145268589532121 -0.00641749045832607 -0.0526930620076409 0.282367316749244 0.0152775844234451 -0.284716386268612 -0.0225296356869617 0.102574165863755 -0.0713508677039007 0.0541701311907416 0.0959263179621068 -0.250992605880940 -0.222422939724327 -0.302106778315081 -0.231802307747049 -0.127938231756224 0.0389756661725447 0.0427610935226233 -0.107149863234380 -0.276182431603330 -0.226605841878926 -0.108313751143925 -0.0538449015507739 0.367915632130770 -0.426476556287370 0.227607706522061 -0.0219069729537108 -0.112503825453285 -0.457094948147614 0.0992279272091499 -0.137945762482189 -0.0514091695156533 0.238818306225087 0.256205412212071 0.0597857838736988 -0.0175190259936949 0.272229726901368 0.0830195766261255 -0.260372895639129 -0.163051075662154 0.147336803500892 -0.0902328870640728 0.0237059745192920 -0.255057238490080 0.371843331518385 -0.200035366052685 -0.00194543213239690 -0.235251508671425 0.203568441165987 0.0168991186115611 -0.226925265642686 -0.333175877824816 0.0830052608728180 0.0588152849891882 0.517116724107206 0.488665849882894 0.213755442802564 0.428137929762154 0.514056063841572 -0.609617406704626 0.118531954816593 0.322655146654850 0.0727020392476985 -0.0599922448861374 -0.0529787176320829 0.0288223142932985 0.00796781673183703 -0.125474843051707 0.239903522699149 0.387718758961312 0.221721716984387 0.0693877972809734 0.128117657884307 0.193100947986398 0.0436156206627769 -0.125226482730166 -0.0582414254398467 0.164376801489198 0.221887064849330 -0.368783305753162 -0.426131893863442 -0.610661951821022 0.275301403738431 0.692342156288650 0.151902505951762 -0.624887956973193 -0.280566579821156 -0.139901465854491 -0.112678290550314 -0.166724823170377 -0.400815801295371 -0.0820607630892885 0.193953061137958 0.102764066789525 -0.0534611499715735 0.401000666163262 0.330992587783599 0.264451976326073 0.0131593507653372 0.320709210482975 0.113593974628499 0.0385499452048607 0.383832721228686 0.177094061905697 -0.0364171927683102 -0.000967623895761016 -0.266220654935463 -0.206822008752291 -0.130405114237856 -0.145397099852854 0.182180904780352 -0.193845140694108 -0.220796299263754 0.249602226274380 0.416952912941505 0.0494818886056964 0.555555666016688 -0.232401137782642 -0.341241662724734 -0.336794682004866 -0.495828778326451 -0.381980526250010 -0.0312242011870932 -0.268147134772373 -0.0391168960539954 -0.277159125337028 -0.190608881554306 -0.289352779883384 -0.208654166082443 0.116223606841500 -0.163825265914705 -0.0701186967730666 0.187695061323163 -0.182870602551803 -0.0209952257801589 0.463547041230707 0.144995711627449 0.0252858509417153 0.0550238170134238 -0.241751535221173 -0.431568128277768 -1.18330244136680 0.366168908800706 -0.287621129319511 -0.497959080973526 -0.0259633282526375 -0.588552526715754 -0.739152984404727 0.741953698434194 0.654000591363220 0.583794873737728 0.611289559045485 0.374698054998752 0.264358045289991 0.116136381965046 -0.235936730042514 -0.0485827976203735 -0.233819946665821 -0.271446070357522 -0.323212131276716 0.331481179109754 0.240205375311646 0.0737677135764235 -0.267601511064667 0.0304998092176009 0.128100112403642 -0.0423242588148561 -0.272450223229555 -0.181470893598804 0.170551176656624 -0.328977791511584 -0.516997939193686 0.110482793907219 0.0243137051451451 -0.204575156045179 0.316910290077494 0.250109355904127 0.366663099662561 0.258302809490134 0.520596964924572 -0.0571888593044050 -0.339319980835796 -0.440525048588908 -0.0794772778977773 0.0835142869669436 -0.0621990882494527 0.110955392918617 -0.0429029505306015 -0.309868397004294 -0.316971221500758 -0.405566449347727 -0.146329588443535 -0.400240056411300 -0.373434191735085 -0.205168699046927 -0.363601201076728 -0.786704640327154 -0.877316154221605 -0.0907862811841646 0.203659878067448 -0.0515058578887764 -0.271945950450372 -0.173821820256249 -0.749578269062753 -0.0478170681495661 0.0337371708300768 0.137539730530235 0.125667718913504 -0.0173845196676230 -0.00235354857556622 -0.0143988479946819 -0.583447303691049 -0.00339333928115626 -0.224394255764365 0.00732294215663468 -0.271200598838774 -0.185308754415584 0.146810098186077 -0.402467033584857 0.0964424720077905 0.0860182316960904 0.168542353504994 0.537863841195824 0.219788404054883 0.0596747983301303 0.0893288154512917 0.266979580745155 0.281294848306683 0.897386618101705 -0.0105572628693666 0.507281503425801 0.139037138566676 0.217391342188131 -0.429079875942479 -0.246743930453469 -0.192087501393956 -0.00613690935957971 0.0556327010117953 0.195946156081018 0.208825800624388 -0.427024630459586 -0.0667150677799443 0.0341945972598164 0.241151357346182 0.148979372431124 -0.00293173022781004 -0.652423159164427 -0.753814360824919 -0.576263756171406 0.408423600908151 0.655553997427314 0.155148393099138 0.201605893309497 -0.517710680322786 -0.294106985062567 0.0382665192596524 0.194950129554365 0.209192853455202 -0.00163746689810189 -0.272082589897571 -0.00676267365182452 0.115550442873179 -0.991869880016184 -0.535660865460685 0.298690878311624 0.136940999876864 0.142948926319109 0.204090533184657 0.0193213906613923 0.224348777898380 0.482285264357042 0.420895640212159 0.253490475350831 0.0739751878972769 0.124790592901609 -0.143959850724866 -0.0558901490635068 -0.224941745226894 -0.0371026979234824 -0.125985997426577 0.125429391481719 -0.0230200731801633 -0.119322169553266 -0.127969197248546 -0.272451021624202 0.205387198021012 -0.221819875324615 -0.997191896669333 -0.362340353423083 -0.103825218097557 0.508117608191411 -0.0801174339342212 -0.0631287479299452 0.270560766712974 -0.0777012476050069 0.0392013596555084 0.383230080705185 0.131848307767990 0.0659423891996007 0.344000847722295 0.312577285498598 0.106066193056079 0.349660109886751 0.310326435890549 -0.213278880126911 -0.820928153929872 -0.645371354684715 -0.316107094188129 -0.318392737579948 -0.870046788770810 0.692573612658911 -0.469126643277034 -0.209008842562325 0.230449883739669 0.818126086277607 -2.60432549164939 0.927077541076427 0.357280172287489 0.168320196625183 0.728121516188343 -0.685654265750844 -0.869764626938267 0.217111322178984 0.397171120233008 -0.357769456055389 -0.417511761854483 0.0569779852581237 -0.339145306250352 0.558683648912397 0.802215772500461 0.509640091835582 0.823445970430004 1.55317523926747 1.10244922940613 1.42281997068047 1.18774353853695 -0.673709572014727 -1.07786764406163 -0.853726525593308 -0.506508385574602 -0.579690554963654 0.722572282221773 0.883434699127047 -0.180748728850139 0.341228455435687 -0.199742024466335 -0.313034066462926 0.253900737698864 -0.130585945391818 0.522667151649666 1.46162384955060 -0.880643212311118 -2.26725837774002 -1.70673212750551 -1.11326421392069 -0.786098492537186 -0.0196088884737775 0.679231819349482 0.361676636952081 0.288339382628258 0.260790497343747 0.738628447641345 -0.197434353903861 -0.257044261625112 -0.885548893213551 -0.724171976143893 -0.703813057997271 -0.232389623791622 -0.754358717198456 -0.798127790973866 -0.456387988833222 0.0801199422135536 0.213670104110757 -0.562038302480081 0.122019560815491 1.47590685408820 -0.705491350803895 -1.00110966138677 0.314446845386452 0.100289911152994 -0.765945134570009 -0.0259506015423081 -0.623848275381544 -0.363009967161237 0.170003067472242 0.295267463639646 0.762504901685180 -0.508777393381102 0.943026024723339 -0.424573804795769 0.485320261676566 0.0156998525567170 0.0463449442672362 0.132347926974924 -0.221993101676350 0.277460554374962 0.632074618293602 -0.252820189040355 0.0876677801203821 -0.0349404499888026 -0.396488165357305 -0.134747956731846 1.08032835048862 -0.158164589537481 0.164689114592862 0.0216446455238357 0.935012633423043 -0.722649907796535 0.377559465931800 0.586087528538960 0.354538028972362 0.306266239861349 -0.0963570895409010 -0.447421107347428 0.0777362793277524 -0.161927671200185 -0.425866625247601 -0.681026505302967 -0.371703245002870 0.0171346004986080 -0.189121997055915 0.324381879327289 0.561439438978325 0.210980734714580 -0.161493357840291 -0.345855605704800 -0.506859899525959 -0.677967392118968 -0.160039236532817 -0.404025536825700 -1.15014128155603 -1.45126679568347 -0.357885914063482 0.709356085651489 0.456316761210579 0.149101083453641 0.562269914992242 -0.0137264187846280 -0.148591130583295 -0.307754016508563 -0.364265442912516 -0.120510621748950 0.0934376255911589 0.0798463236667760 -0.134863690414892 -0.224656105402673 -0.247488295055152 -0.0753539655299424 -0.119989205491652 -0.285036427770528 -0.357351077780408 -0.0921646793378808 -0.270436522887013 -0.214784813681495 -0.160267284323965 -0.0454027287544665 -0.0261350808665672 -0.235668598163834 -0.756581584947944 -0.150794809413996 -0.226315453105583 -0.791336796374764 0.484595962367961 0.332997509598777 0.302020712890176 0.839254730607943 0.473873503180319 0.495935029476787 0.0367507287795818 0.0151872273699993 -0.324385820707047 -0.124673409428993 -0.648514725764845 -0.396276339502504 -0.403250302736868 -0.344605920003201 0.209432433612625 -0.169679321031386 0.152888599033078 -0.0346769186966664 0.385861374927928 -0.102550311126994 0.133371408758650 0.0384128562010741 0.610672660180231 -0.186141243064038 -0.128708952019111 0.00368310160186759 0.182379800103451 1.58218937256326 -0.506350658261255 0.281436757089054 0.774122514581635 -0.277797446153090 -1.14660021533720 0.239215524065285 -0.0992541048347625 0.0274030125719341 0.0442750070120606 0.277496326407109 0.362901790783866 0.104472269005590 0.259503587688274 0.350441176425996 0.286184641032155 0.326367755041371 -0.0502893565054277 -0.323257197680871 -0.650224342788342 -0.731171749110841 -0.677383846373883 -0.644524298306976 -0.188201673820864 0.213861958154620 0.103184740507201 0.309608173349638 0.123752380184159 -0.251177510579234 -0.394605274117062 -0.119369096138501 -0.172292577792038 -0.177377859530105 -0.560039267836584 -0.0801238914716808 -3.29546654694232e-05 -0.0418271378254830 -0.226574178152791 -0.332797769680578 -0.629651171987575 0.0143973996641820 -0.0152974638548760 0.412713426490539 0.613711356311827 0.550006159448221 0.767277476620649 0.750330154337702 0.613684742884501 0.590331289208317 0.459227300496686 0.211756314182817 -0.0565567193821163 0.0596049352011442 -0.162896759783388 0.0109920376349063 -0.368349600777666 -0.0268018321177557 -0.228683426602506 0.0586164450446164 0.299634852948555 0.146118791077168 -0.271351942545009 0.267176562975608 -0.139296116647973 -0.166539328125322 -0.0914457164609979 -0.188022586042930 -0.0130546472678126 -0.0144358545155140 -0.354110081798251 -0.213085447614281 -0.567911413654205 -0.324019460869737 -0.456513006081193 -0.209150639708700 -0.220824190434164 -0.197724193242573 -0.195530880904005 0.0363571107892114 0.244226625977461 0.116659226315374 -0.0405201680986250 0.120365318661893 -0.137545963398738 -0.0310420871018774 -0.0568278108379077 -0.0787792632833100 -1.26191080860525 0.279136249874808 -0.131758291521775 -0.185169727762917 -0.215900436452674 -0.280782736449748 0.682501504903655 0.487796032134723 0.198374786496434 0.367075871767539 -0.133998404072598 0.320325764027710 0.302088296300842 0.295433746992290 0.117755808289316 0.138081648416830 -0.155316102928236 -0.496614590605345 -0.196723956904752 -0.286549519002621 -0.413233578630892 -0.0297830082828875 -0.0390131528616032 0.256010018164275 -0.188836116850296 -0.382116049360815 0.0877421959167864 0.110737626866364 0.0592517574344239 -0.0412477168373521 -0.365267904661699 -0.381801657842309 -0.534814631569453 -0.445659171365335 -0.0238048461581091 -0.253837510882179 -0.576221859434848 0.0192857112711922 0.298918566044554 0.378132483400527 0.342906779320027 0.269301080136882 0.128134135595462 -0.102195356585861 0.153590878694836 0.0649052722440674 -0.0476625628547592 -0.104326171537819 0.294626773696185 0.438596291331489 0.174066551001535 0.324901515828580 0.122183447525545 0.471919283778875 0.386764689592248 0.0532169070429993 -0.105626852756524 -0.0821621155950545 0.449039306710783 -0.275507598347292 -0.502841403313528 -0.0704340091000657 -0.252062103384832 -0.312256819786622 -0.268212089116922 -0.201291121839128 -0.191294374994556 -0.0470655325128721 -0.117885312231613 -0.0810496516679081 0.260991470308935 -0.0691256270685184 0.119071522803743 -0.0116721187763665 -0.366662835477550 -0.238789180917838 -0.341699673632467 0.304723373140562 -0.314500294830355 0.190988334066206 -0.396317895482147 0.110717977997967 -0.632746183228669 0.432106358535362 0.0628757733018640 -0.419560559616720 -0.666289215184858 -0.720531088768719 0.629073346324274 -0.207768140164153 -0.565385646356896 -0.111239713509777 -0.329128074204534 -0.246320546715082 -1.25333298184659 -1.52756170085781 -1.06277621683123 -0.237867004703727 -0.686394412488533 -0.511092598699970 -0.385242241206489 -0.165244920946890 0.141016209696421 -0.124069052724808 -0.101449492983357 -0.997436717059497 -0.876314500740254 -0.557191625361361 0.0423726548318729 0.148223295797239 0.235705639917201 0.128611595498817 0.459357321158648 0.124916209687719 -0.103199799578579 -0.301699677194106 -0.325279557976808 -0.0629111916748060 -0.0324190883204021 -0.0446857891738951 0.441471522452759 0.521318375177690 -0.410705990883761 -0.187041471883877 0.105797447577150 -0.0266109753954707 0.330669079057153 0.162054859080914 -0.374649286929998 -0.903927427745672 -0.767206714430759 -0.107534614418328 -0.419885357559819 -0.445281811068653 -0.384465236681021 -0.352688042248609 0.116476563026232 0.170285718747111 0.151537916702657 -0.131426070053382 0.608717254779179 0.681898358032372 0.779836755133269 0.536917332068967 0.137206419051241 0.0685542664300123 -0.375725326891027 -0.810779312303603 -0.264788070178587 0.533972794614722 -0.0304170075178919 0.0620704589477114 0.564587822479234 0.00807286060627044 0.285271963515595 -0.222761497666250 -0.125769615253389 -0.0808580510134947 -0.133173743662175 0.236252699009973 -0.612705618103386 -0.320380672352444 -0.504242334890866 -0.281967308915492 -0.461131883904264 -0.0484730850329270 -0.250707324841298 -0.0669585042272686 0.116122184427506 0.0196443938078232 0.0980520192628807 0.00240508989174434 0.0567262813692366 0.0993914662745034 1.96180741733319 -0.337346481772158 0.0123778514315221 0.259170663667355 -0.242447813669344 0.222657872510238 -0.326417270679400 -0.0740354038807232 -0.451986623967323 -0.366351489909238 -0.522345394413437 -0.167454593646587 -0.433363237591648 -0.233253604839385 -0.0653086704116926 -0.217072969095063 -0.196912284866552 -0.330239958170077 -0.215571181796184 -0.0442551215710878 0.227215935834543 0.186281493473011 0.403907327893738 0.299089912708682 -0.299470808187402 -0.707824488310173 0.0449435859491984 0.204556133078135 0.475732585120821 0.0709755674429567 -0.386081935391627 -0.559401795398805 -0.396561476084678 -0.106742062354248 -0.287682545069206 -0.142310080882866 -0.349416006265544 0.236329786111094 0.456187910327546 0.670546964751720 0.277542756455499 0.459985246487320 0.375368791655465 0.261882920975224 -0.00645947533962800 -0.0252153768424698 0.0929296447377495 -0.169848568042339 0.282752830493237 0.179461017265067 0.0459938580095631 0.318047552088315 0.443247809841053 0.433767478128672 0.466215383796874 0.429549456936915 0.654605385759340 0.429734463537146 0.0822615898683762 -1.22123417127705 -0.173657687672781 -0.122953372805676 -0.0502603255312303 -0.112446550437967 -0.234706108693296 -0.146368159674330 -0.196122521770535 0.118707864872491 0.224772983457327 0.0515180529044277 0.0682952626734470 0.178739195094914 0.0680052901746452 0.0629476212748087 -0.115143711618902 0.0458643889925069 -0.0702755280119518 -0.130770185706114 0.0694323969755163 -0.418857860751194 -0.0900940653932078 -0.508343867874629 -0.649182181517316 0.203705118611907 -0.353795359157256 -0.981494026342768 -1.31589873460184 -0.953662383134877 1.01562663620899 -0.477083310036273 -0.656835777441066 -0.498141558489370 0.155753189610797 0.346327346738740 -0.100329273362274 -0.0166851152919727 0.202047890948400 -0.0810148572098750 0.0794751897008976 0.279216546395371 -0.0538953962858501 -0.0215333207139325 0.166859931233352 0.168891922275102 -0.100538030348082 -0.101361388206498 0.00209609158219060 0.0261998589853473 -0.140960207167830 -0.156248913001490 -0.592146018374046 -0.759916857652713 -0.719060525703031 -0.127734923015864 -0.394744562318086 -0.246293524521585 -0.230598743088622 -0.468005814164064 -0.279443759239227 -0.241393341594200 -0.123707806413500 0.663831486315217 0.418528138135591 0.121205960604813 -0.0609700837871428 -0.211873272029610 -0.175690386269730 0.112678657382410 0.0734388908762063 0.0922378422342653 0.218962844516714 0.218790836681368 0.513286715094099 0.690376425558713 0.227622054031438 0.345992460300034 0.342841130625181 0.226503785608633 0.246667922170927 0.238687793700494 0.0268098226506458 0.0911976767244696 0.122220878630722 0.0137052230057484 -0.124289134423712 -0.0853438952220254 0.658328991384676 0.387295661286631 0.0586617692553858 0.0361936562893525 -0.0776742103307360 -0.233779900232173 -0.511932353687169 -0.203366043420447 -0.0189994974401173 -0.320583629203435 -0.0429319961485909 -0.332630024760802 -0.169852065135050 0.00851722125298513 0.00687911850149247 -0.114511294774864 -0.165846237868292 0.0395830127951703 -0.294404132880859 0.0643924863662056 -0.586852551753729 -0.176028065956583 -0.0103617095769834 0.164428157163106 0.101878181238765 0.265466370779345 -0.0113862249862380 0.0696697133113377 0.305288916929339 -0.727146582633059 0.0996366717735748 -0.127082411205161 -0.0209067046762619 -0.259010086512935 -0.316633319452533 0.310271945264350 0.479579774772660 0.0846909061410610 0.0172598780070159 0.108588663556501 0.0227211392744024 -0.0764244507484811 -0.244000133996261 -0.0363583125375580 0.0614758745389213 -0.203894891841102 -0.295234056458764 -0.227012647699249 -0.308800257566439 -0.119310450666850 -0.385362553680795 -0.141559994055123 0.223663817315722 -0.0338276119051887 0.131041337196967 -0.0487751494533287 -0.268647038798147 -0.489341241283073 0.0300292349032768 -0.0346797166219897 -0.0593665922995051 -0.273800943683524 0.105177701251737 0.124851687287283 0.118554782419216 0.386550971353816 -0.266573741888098 0.124300734901285 0.401769227523269 -0.0177058319036061 -0.548381383238954 -0.602227826318807 -0.373228907277586 -0.0805990561758520 -0.0548795910143280 0.135536704581659 0.303261829202660 0.0301588429620221 0.292629566561674 0.0161092101837886 -0.0807860290947686 0.123249850239444 -0.131729065847580 -0.0537614052967422 -0.209702288676389 -0.178931799486450 0.00692160867352091 -0.345216061331866 -0.466376239042684 -0.370521632822959 -0.0955399792163378 0.0300690743261410 -0.191390654427700 0.119783711219263 0.268950142288780 0.478676745682009 1.01027863500378 0.596039951087553 0.338464220094541 0.0147603189789216 0.418923887401376 -0.149581697091661 0.00556029644614113 0.132918676199511 0.323118659879118 0.161319779556801 0.186655765526622 -0.00668508777604552 -0.0610799284714077 -0.0814160341330977 -0.656910879666793 0.177248504914805 -0.307102307263036 -0.198064425024339 -0.279584224303784 -0.572393870276571 -0.151790084349161 0.206437501774068 0.0507140310970860 0.365722202749077 -0.303456721260789 -0.125599564630769 0.270229626338308 0.796232756259528 0.330222011127779 0.0608401130840316 0.183627590046603 0.0443592462475265 0.135121059930875 -0.0937778076675436 -0.0589310123097129 -0.125525159985663 -0.371078426670993 -0.281420006992004 -0.469616789447775 -0.705620603772366 -0.276224325360282 -0.451806101249523 -0.275278940226371 -0.218760330272623 -0.684453972882989 -0.208302445606024 -0.126113551130786 0.107451309250958 0.431836552434727 0.222320695079039 -0.176597185195774 0.0835616867159673 0.353435440277033 -0.475360366312488 -0.696939849395135 -0.262319750327800 -0.191694465682313 -0.0210822028152475 0.117269463181660 0.109358926950875 -0.140032643923677 -0.246599572478035 -0.351867818315041 -0.556226744300655 -0.395896381532100 -0.575526008937386 -0.484317322711826 -0.149975954245624 -0.0757150764900653 0.265381831238529 0.261919443607383 0.528169344978113 0.408255019788835 0.344486607696656 0.591764442353414 0.315943964889629 -0.129267525551848 0.538265977780802 -1.04114315708845 -0.351078851826224 -0.301426648482139 0.194555866946602 -0.0788016563281469 -0.114174627877504 0.151540621810179 0.0731173985268081 0.00581994548558930 -0.223755864372092 0.0825332918318153 0.226684311516422 0.290011642905280 -0.0418881114768184 0.128458100581850 0.279447772859775 0.305455305558662 0.328550483318188 0.0710738962628058 0.161224684294269 -0.250407674038108 0.212849694650888 0.0663844076421352 -0.668100778250150 0.272729971343999 -0.198203244174411 -0.773889368358906 -1.15931155983245 -0.719692545086476 0.556373372169804 -0.647812047073602 -0.479015088926969 -0.578948584639919 0.377888026653354 0.450553519249620 0.324310010584333 -0.0373244959113694 -0.0862082244812177 -0.323149302245966 -0.211014242513111 0.0649374795783624 0.0382317173107638 -0.202684599869811 -0.161118706281843 0.158057003166785 0.458813258374794 0.182911861431318 0.386245894144637 0.317602763059382 0.406220965024151 -0.434308437605400 -0.537667434745354 -0.585117603597014 -0.575068111834637 -0.00704902529174791 0.180382685317056 0.664919076093652 0.337649532371375 -0.698141915811485 -0.796168518378580 -0.0290241842442752 0.0498357677902145 -0.194876267355094 -0.366123645156532 0.261314906647489 0.469844901635221 -0.0472131234613800 -0.0532923182993362 0.0490936122885702 0.316949492755190 -0.0145205651569164 -0.128269695372910 -0.297211569243284 -0.607516095276257 -0.599947357472900 -0.918865096177925 -0.499496918697210 -0.483001042027540 -0.211930810224863 -0.116217126219485 0.285377277311502 0.173881319006374 0.620621529527873 0.676646613407049 0.516343106703754 -0.0740246629852535 0.126847346502112 -1.27711182532122 0.106486383100274 -0.883380039045042 -0.867784879242011 -0.297299348784017 0.434890299545476 0.372805332244260 0.521625497043848 0.667600024100920 0.299265667042804 0.753803721616266 0.397387141471570 0.519468840076636 0.0455222685177260 0.380236163773216 0.0423782538680557 0.468605138661707 0.0818190778084069 0.316029476737654 -0.145861272849057 0.292584081494750 -0.317327709571364 0.119572521067084 0.0962997897783610 -0.562831622447261 -0.249482307584154 -0.321583302351848 -0.193018135923656 0.0153211088688232 -0.910129481522009 0.486805513766114 0.477892910147967 0.224499847659072 0.192774101449329 -0.0584936620282500 0.360159581774327 0.381286455145520 0.156479078896398 -0.106581990808901 -0.0356185734235041 -0.0577712680469133 -0.165117234953787 -0.234247036484897 -0.384880049271553 -0.246957814862304 -0.374831588744081 -0.487575515088408 -0.443383472885009 -0.744670659769401 -0.810661132293435 -0.713735040586221 -0.653943571112772 -0.393791654857282 -0.619707676542259 -0.837541087252572 -0.358049106611789 -0.0922203092732516 -0.262099044296173 -0.0148131496081533 0.162945563539982 0.164311665971230 -0.301585265886005 0.311931203410911 -0.0201745168165350 0.138632079464941 0.155872298795177 0.213925262609271 0.410028886127788 0.497367440568383 0.378218329831769 -0.367253495835307 -0.192407786844078 -0.243838228796379 -0.0831564315506459 -0.415301426893940 0.174747975122340 -0.0495152906272505 -0.122108863619789 0.222186385962243 -0.00249081385001408 -0.161191795221008 -0.0214462562408604 -0.0923338674727843 0.0579946987913727 0.0896332217051278 -0.401424586502360 0.288175411142774 -0.213419941158895 -0.0708080646738928 -0.405713447628759 0.101727007053943 -0.211337627900374 -0.0824374603866033 -0.285183844448902 0.125071411414399 0.412329772262697 0.428069793496745 0.152709236464414 0.0452394206263801 -0.150436923171248 0.0609251338127931 -0.100459395664757 0.378863490555904 0.106083570749342 0.254816313811101 0.205581849218902 -0.114997289455822 -0.247232820925658 0.473609147206036 -0.304728084262612 -0.107824583124150 -0.0166806999226874 -0.250980100239137 -0.171319543300888 0.0649829784249355 0.456710929448690 0.325111505540726 -0.259098247119439 -0.0191605083245885 0.0448507598277908 -0.0352189584618352 0.255904484284131 -0.207351066303172 -0.215057986296795 -0.226610452452513 -0.270369233639924 -0.255487582792756 -0.0936312419513786 -0.0913580058575828 0.176947224656072 -0.0453910084793178 -0.100344257711740 0.00942481998944615 -0.0143195408641318 -0.222319138622608 -0.0105485311826585 -0.0983413950735019 0.00964075359816117 -0.317415015132928 -0.412132525087817 -0.515884175124242 -0.113981633100016 -0.242611694623001 -0.0886501705619495 0.125908395399045 -0.261050859165037 -0.397989438815934 -0.392999637347745 -0.375034898656677 0.0466950433631210 0.0774300566504744 -0.294960723682913 -0.137677451300899 0.0636769800355503 0.261797230932571 -0.207316191136011 0.198168177572171 0.197297337691664 0.208603900805794 0.136644193323740 0.278679936798937 0.000417576352437663 0.136792178913424 0.0185172457465788 0.0640081398313627 0.125196301273243 0.284435975530971 0.0646859924448944 0.180739444960681 0.256205824158033 0.230680213202950 0.199684746918754 0.0856570522743931 -0.0640829638034460 -0.390277647951870 0.0917373186354444 -0.242272316317901 -0.210898604988644 -0.180809013991602 -0.152047440462946 -0.290404482904914 -0.257461198338688 -0.123208055725154 -0.0794814192229895 0.242413607038339 0.247643168922808 0.113281813994541 0.0743436386434681 0.0550233564580219 0.0170394679548339 0.0792601673287925 -0.0395351809192643 -0.0814512253451145 0.146530667863783 -0.0872439339732818 0.0153037932763031 -0.0811934984629644 -0.342272352259369 0.121682347984644 -0.0196510097442697 -0.409315845223063 -0.502755620317525 -0.659527418918873 0.515704338690818 -0.197413317277611 -0.391320240622615 -0.446440306742175 -0.121998260495685 -0.121015754216209 -0.124610465599539 0.261689946943548 0.234180948180868 -0.0408898887894813 0.0674350444922405 0.249329687452387 0.0511907439731864 -0.0211397379615100 0.170838374639369 0.0594336067855226 0.106181474288106 0.0419817545732141 0.221633732958502 0.382307947047292 0.162148264624387 0.125137614068628 0.208842962319540 0.0760733649331435 -0.0395982934316039 0.243418866380392 0.511938918851395 0.279817624123661 -0.0208219735795600 -0.240454322844465 -0.249398467035080 -0.0304080408948545 0.275520216518523 -0.653724287490214 -0.391377935677386 0.195804489219542 0.125421440425227 0.123664551264382 -0.0326591112428649 -0.377381956849704 -0.253337739300570 0.105382966676604 -0.347169371025775 -0.141695887529745 -0.370376964734473 -0.391804424033352 -0.520518781675000 -0.104296437275019 -0.406167064645018 -0.337489857486773 -0.107360990875788 -0.367151756161311 0.216589574134918 0.0906277428238401 0.259517351178113 0.542357485156803 -0.0437730957851124 0.157175723298930 -0.849220318838875 0.140120012114078 -0.240307281192099 -0.188802419015973 -0.0332714404402387 0.370922433864092 0.0196610494302105 -0.343103524052038 -0.286322759636981 -0.217226346437831 -0.341005214965374 -0.284201395265282 0.00102645811251187 -0.146770442904634 0.0182383117325586 -0.148373100826165 0.0371500899239591 -0.181928025018138 -0.0206247371018945 0.228534664668886 -0.235707437310167 0.513620025335186 -0.581550926205765 0.253974596657100 -0.0616526216847638 0.0507124447966774 -0.204538977285558 -0.200449345361164 -2.05515331604459 0.566642815714210 -0.130006927504051 0.00879720911140471 -0.207051442416465 0.173824928480263 -0.354380143610342 -0.639719709580663 -0.737072265887297 -0.380204636135631 -0.113404836467111 -0.0891880620814240 -0.0356749632251902 0.383292123489875 0.852726624485418 1.01079124101389 0.569306326616342 0.411418042742787 0.171006692706758 0.460236170091349 0.257436727324739 -0.0366757084468917 -0.293607521466371 -0.142526499131179 -0.956594732774148 -0.594264365858462 -0.335211235699294 -0.363262214338754 -0.0326504113034880 -0.235511773208182 -0.0472309322260394 -0.355890593828948 -0.0605888470058904 0.663008030759901 -0.341088953599125 -1.03264602526547 -0.636730440915602 0.0636146892169281 0.0798533377730538 0.100593493159611 -0.137565107547584 0.0847681226208880 -0.177211193438185 -0.407410974442782 -0.344573402344192 -0.236779762815143 -0.219271540050098 -0.480579877821259 -0.162906172873952 0.137147520368999 0.225409283145191 0.276667607001871 0.349139548791476 0.431036308699105 0.435543712171637 0.372253259560619 -0.0369038039983874 -0.207475935181768 -0.270304269823364 0.608595066178067 -0.0837795787888420 0.409146195043353 0.132423167242200 0.144716313082515 -0.0229660173004577 0.405745902278131 -0.222878423766197 0.362041369392637 0.0203316383778093 -0.177078104249132 -0.144671572997613 -0.200940424612316 0.187269603006354 -0.537471355935793 -0.332889725139505 -0.202537433160292 -0.182452185299665 -0.243068837732492 0.187662311474608 -0.0164700013293315 0.00433812123260003 0.0983066571303883 0.0635680086395772 -0.181856435171307 0.00125502405486401 0.00230175156937880 -0.0499834275647825 0.520152849043237 0.391383459182011 -0.170905635675884 -0.245623646906808 0.300464358784019 -0.266903291089474 0.0981714561077620 -0.554005352344003 -0.490441495612366 -0.858659288174455 -0.450365741708145 -0.0173999956987856 0.0457272233123567 0.239928179280400 0.00431136226651629 0.0332155516425313 0.190920683084745 -0.119966809858424 0.0806704403201180 0.193738128311945 0.219928321030952 0.0723579790949302 -0.0665412917677557 -0.513091159207166 -0.172456588816592 -0.0702044790587537 0.340726760434842 0.845052661562182 0.304173112452638 0.00163911226668775 -0.305170518738071 -0.224496135985441 0.318103386744847 0.425571862465005 -0.430676329588170 -0.847710747690247 -0.516983571694304 -0.380648985011820 -0.599862037174015 -0.336421411642203 -0.589875148924527 -0.600455896201286 -0.152668881729755 -0.508130644966055 -0.626517333390724 0.0342510930957143 -0.0294182401473554 0.202752716327814 0.355291179530609 0.365261176907521 0.287515611969361 0.252962996894464 0.479504079643544 0.178505525818610 0.210264534604163 0.0712850565136753 0.158340205676890 -0.214303618235148 0.434029436922467 -0.268500527135312 -0.861972947113961 -0.124800359931651 -0.398717152193757 0.433668314133026 0.215887752172107 0.0851889185358477 0.345499744733049 0.0355662870728095 -0.176489633042439 -0.180574562602659 0.215116830279487 0.0565656593925743 0.0800672444084958 -0.0471578457534446 0.154785939250345 0.0570207245875829 0.0214626432789895 -0.00170484235714670 -0.134819947468234 0.110557213821165 -0.517172480799671 -0.254556394356330 -0.293178086944129 0.0518345747638916 -0.190694704674429 -0.581990371866427 -0.551486894275843 -1.56611276342643 0.537997125530243 -0.404997795737328 -0.0473770586975793 -0.833388393379621 0.287709400292064 0.0473427948412193 -0.303194740777541 -0.230079939013363 -0.129102401352791 -0.413979222831368 -0.296721446644042 -0.0139156104159041 -0.0947662726280251 -0.478851645900095 -0.482600044583706 -0.343775317497030 -0.144228553741682 -0.218196355559026 -0.217674700285024 -0.350137898942177 0.0791798381296623 -0.155744079751420 0.224548266470409 0.0369806000357320 -0.255510858919639 -0.387574252346248 -0.0512828168708635 -0.0755698432202065 -0.0573497378643404 -0.0368581865764256 -0.0426502097136016 0.139339468902146 0.193382500072126 -0.383238955012407 -0.0654277219156426 0.000409482346974295 0.234963797209975 0.319234627133682 -0.262137723926331 -0.0428069701926507 0.000601451394658376 -0.223760085616393 -0.0874388611749540 -0.0825567412481470 -0.261379223831665 -0.0883566238399992 0.311118273728503 -0.0124089326861637 0.140517732143375 -0.0633303372002215 0.0711890117901918 -0.118084954078292 -0.137011619440124 -0.101788269366173 -0.0198524017522818 0.0477832203941512 -0.307489462663841 -0.513700053604830 -0.0258792370239673 -0.354229801905906 0.0797901391550297 -0.121073998071663 0.277956768418010 0.247699726027155 0.305136518295106 0.571244082692606 0.657598483382031 0.515365962750873 0.285908025971555 0.110857018787849 0.307897811722070 0.227051174697344 0.221181295957442 0.100867910230125 0.379885953610259 0.338674448656983 0.310601748876368 0.0169523059255631 0.216767723135746 -0.209952949042979 -0.0555254709162958 -0.110909117249648 -0.468984279275618 -0.411788607680815 -0.213894366569355 0.253369080167811 -0.737732695982113 -0.224073465468008 0.511946822502698 0.341167642003539 0.404120057503300 -0.790319558135208 -0.190782448467000 -0.407157580585251 -0.330211605096652 -0.177319327146498 -0.165723381082825 0.130131750280502 -0.281913016546343 0.00897743568158737 -0.156789546150700 -0.424756046729514 -0.141228342096666 -0.169898095347180 0.0165409764480053 0.133522450764450 0.342899923884046 -0.178481097086666 0.168634467802832 0.251200929931319 -0.343488771863644 -0.175487890488190 -0.282633380090324 0.0336251948255767 0.0644956149124814 0.0855954275873588 -0.581785885835401 -0.291626328307656 0.0158378117100704 -0.342457271338422 -0.0149241716874284 0.345926918015584 0.307045490296548 -0.0947436903682963 -0.0807217487984304 -0.0952992407788982 -0.103870139492813 0.311773245532780 0.212669588185063 0.00822439357817311 0.313467572344638 0.271732329557831 0.192114713648239 -0.0266704984061033 0.247633975742423 -0.178264638255959 0.0325228730684137 0.00137851335602679 0.143114701057273 0.0624793561401003 -0.0120613735255081 0.108043513197797 0.139017590278189 0.130069954666446 0.0924665076483555 -0.00622315571338437 0.299286368368540 0.0218284997108598 -0.540462101364676 -0.672359094397562 -0.445542415423041 -0.0791434851624138 -0.0402877930486251 0.0497305432545492 -0.0966520137647296 0.102390267561808 0.270315504523383 0.168027354510179 0.206249987130913 0.566668691050020 0.0901403810006113 0.577275014106409 0.300376943023587 0.177294113093766 0.111133519093793 0.138187687369709 0.227388577925043 0.373351945700363 -0.766872253464356 0.396861666691651 -0.0195118801267817 -0.375111408719541 -0.492925493763285 -0.721121870701322 -0.0182343100029626 -0.153695768898506 -0.441955276968428 -0.199996271582068 0.275156758687698 -0.104128589429790 -0.514920216886447 -0.637535745116500 -0.648975201210464 -0.524388473511268 -0.207375963012350 -0.304651138193987 -0.207585625122270 -0.139727154771029 0.170206861010467 0.459767824752664 0.385102115973161 0.300315865674334 0.377817991319810 0.141498166913221 -0.261931148739532 -0.626159478834380 -0.266811933813055 -0.463275300585532 -0.622238259339849 -0.342097480784730 0.0538823989562750 0.330809551648068 0.0976500180414922 -0.329659360696076 -0.169429830115777 0.0336632936760012 -0.269967815531067 -0.527785894029339 -0.452277794586735 -0.360640892245755 -0.272132927582677 -0.408666151066116 -0.630902992430290 -0.251431187737123 -0.160081661452236 -0.121355721009646 0.0246272872973803 -0.129904111286516 0.0469096093924922 0.0118332939961150 -0.122579213228094 0.105023475570840 0.0376027734294929 0.531182310963088 0.350366253067713 0.529486832663094 0.424180760674385 0.256577415584996 0.317430930219251 0.363103770204713 -0.414997607146499 0.461575477356029 -0.0840538834458620 0.235750979735100 -0.189922932966753 -0.303958799440359 0.329500733187517 0.170728619132238 0.153123001897324 0.0950360804932637 -0.0244216783861380 -0.112801557588291 -0.211878504823574 -0.183931674936141 -0.174647358695539 -0.262122073683261 -0.114975079462716 0.0323600773425341 -0.366952339839866 -0.0560026215885953 -0.359358217366774 -0.211206708046991 0.415069098314925 -0.439182768257855 0.0692322322266143 -0.306863507406684 -0.112194162676153 -0.275852742029998 -0.534614149757699 -0.284978309927575 -0.894124407137666 -0.542080608733018 0.0815273490855748 -0.0666289586586053 -0.462560560083247 0.680860005131080 -0.221239496369946 -0.0434575654266891 0.0753582149384618 -0.253015893720247 -0.348244183199045 -0.213172432015142 -0.156433357941856 -0.185217760290783 -0.289148335361867 -0.386605081690744 -0.419633544031700 -0.120515599259106 -0.0794959236923758 -0.188831797510084 -0.142871765612254 0.0338837053913670 -0.238412163608291 0.0633629370212334 0.0222869026094462 -0.114928282806382 -0.449427135067159 -0.221237189633171 0.0597129373894139 -0.0736647501753897 -0.162441763179907 -0.272183656946960 -0.526614520211788 -0.163591728490989 0.293587821834053 0.393063266902856 0.272542489655438 0.109174263591154 0.205101771605141 0.106274323592682 0.141944293572567 -0.199388852272797 0.0815542140562387 -0.0415793259815851 0.0613255747564220 -0.344688659207596 0.104696109863815 0.195926370117608 0.348350406124461 0.180105132659146 0.331475230027268 0.104404921959436 0.220863518651648 0.295758383352035 0.259257192978942 0.0126272685735919 0.111641577179090 -0.466613820277040 0.824503366593229 0.102304467537234 -0.132842074722780 -0.174750277269907 -0.0904978170206595 -0.226512318476261 -0.172694831309622 -0.165341288391473 -0.102789228066790 -0.342183513506826 -0.341521261827919 -0.251413656176395 -0.000449294263806924 0.0171910838845016 -0.378937008397571 0.404592014139923 -0.0484473301651421 -0.352868559912807 -0.0809764616079997 -0.0661487893704791 -0.0412882350886345 0.229857575571409 0.428756210118612 -0.0575032534682842 0.695462749388017 -0.238765908432731 0.0192492083981863 -0.0727201662986911 0.207251886270625 0.715999386146437 1.02640131461154 0.104585058304881 -0.210785254727379 1.08574521149233 -0.569482127856837 0.199055502813484 0.312793990060838 0.230358982912167 -0.0935348238240380 -0.158064553928674 -0.302657615367149 -0.281088341698852 -0.765097192739552 -0.734070130578409 -0.872939858368704 -0.403941786084055 -0.237871901029575 -0.439906276619369 -0.434632756609730 0.0257547185906632 0.424565045547448 0.237095001036133 0.163497598774810 -0.207972259109475 -0.385663191245287 -0.533067585327558 0.00203974488022958 0.121630558652507 0.373317586967990 0.280911922304016 0.165291619824381 -0.00534827047504557 -0.180392936233097 -0.0359612067901422 -0.472983009931882 -0.567137964797727 -0.00692698966496804 -0.412852894191612 -0.558386891340284 -0.662404533901956 -0.214364005220748 0.0157308683161128 0.167395576726615 0.230226076022270 0.240808678139569 0.436745990575527 0.623362137613554 0.476001083126527 0.377155027488079 0.137508664576701 0.118608106142835 -0.0764007887479667 0.0192713739718658 -0.321929031916272 0.0623226838663447 0.320311696692526 -0.457893982148994 -0.203955670714911 -0.271746818409750 0.209701444141459 0.0435741483027258 0.299223830577142 -0.690836027119450 -0.128191571616782 -0.0929450622972152 0.410009542505794 0.0997732260508955 0.232746551037572 0.285057239797475 -0.0304599050178380 0.184198695215085 0.0847982517131744 0.258426778617931 0.130222922231572 0.202844280207122 -0.329639763950115 -0.159645533861252 -0.222152323048583 0.0195956189215072 -0.170596639314026 -0.0614367336367665 0.240495232712929 -0.723189713568868 -0.337429825151316 -0.277299115437113 -0.530589666550367 0.845340540998512 0.903678248895962 -0.429725650133488 -0.324681870137542 0.760003402250499 -0.343164035626144 0.413754241218715 -0.272481246849750 -0.302650688205743 0.360093722344833 -0.0223887916425571 -0.263738531523480 0.201411627127638 -0.460628305212516 -0.474297992919075 -0.539879925646302 -0.246047556206103 -0.0583056083012950 -0.124892283589052 0.279806888898054 0.480262265390421 0.563977640156734 0.117517662433614 -0.0204462836840785 -0.652732484397395 -1.15340552945475 -1.00509795394514 -0.0700154091132916 -0.0587526946144754 -0.336101985874894 -0.0936450840391122 -0.0813575186467277 0.105004238455623 0.352318397482557 0.317354397861711 -0.578699902804639 -0.459257080125482 0.124508082411962 0.0366400475318504 0.529902499610706 0.589336657631740 0.268465235803933 -0.495929266777478 0.0471932163461111 0.137331655811566 -0.256609352986049 0.00965727172070993 -0.111692487588531 -0.185253958574778 -0.178289849155207 -0.165828126504812 -0.300378604715882 -0.282489426194839 -0.0931210713579727 -0.0834363036988809 0.216349437867545 0.269626141915691 0.126079659680763 -0.392511266975744 -1.22022088075527 0.324370964958508 0.506889829497661 0.769347385393043 0.442665423662167 0.279280391276067 -0.0419429951186204 0.280605021253735 0.610232848058902 0.354283914631929 0.318962695719914 -0.524693625909677 -0.162275789607644 -0.697395272255823 0.0710895550462177 -0.441445681501956 0.0730826104025553 -0.458581306384927 -0.0785465363233716 -0.0863701186521299 -0.126899035743771 -0.0998647905592941 -0.778827244463212 -0.167240516870775 -0.129709577490913 -0.428715822933094 -0.199740385064381 -0.444688302914353 2.02708330285940 -0.0153821494443299 -0.298850305859779 -0.157832172673608 0.242431679392406 -0.776776283613473 0.104949174923514 -0.215143647187423 -0.173634724316997 0.350572865309986 0.131950110942754 0.0782548727256633 0.168239483996341 0.123679207387606 0.160420018637298 0.624848114959554 0.312144261468944 -0.327014771921306 -0.337990041905168 -0.145527608760730 -0.271044447761898 -0.661143340218070 -0.913914856205525 -0.351973753940777 -0.612789598970568 -0.803999416532359 -0.346705264802253 0.767193555976118 0.898072215332937 0.168566694156202 -0.0287263835293773 0.163614141686028 -0.103121364046726 -0.0316894203720804 -0.285064762601525 -0.529257217763976 -1.05077212351625 -0.341569952642347 0.337173694499695 0.241658203376841 0.538005996721258 0.208250564091265 0.212657113309038 -0.0670013922275067 -0.179467112313810 -0.357739226488283 -0.655202544370087 -0.361525160005510 -0.0570488969739623 -0.393392073460370 -0.107366818646942 -0.0396082595263132 0.167359523405735 0.393931180971888 0.114921855661467 0.0575270271380408 0.00980897335031769 -0.589165776900103 1.06472842376453 -0.987983613395029 0.440485283814895 -0.262785662934117 -0.693164377108466 0.308658900867023 0.159412240183010 0.100655663677275 -0.313186511601630 -0.415845852378744 -0.134342136786060 -0.403624344270602 -0.587321641280614 -0.335617230358703 -0.291717571090649 0.0213429435875720 -0.431291824410575 -0.154942271224179 0.0975219097028668 0.283185616280821 0.149889707195037 -0.461081454013534 0.463971953506261 -0.226996060189893 0.692940849814011 -0.383954174776307 0.124179243485240 -0.0393060339779674 0.0446383381955063 -1.90400660406662 -0.0877585948863063 -0.190894400712487 0.224820163051288 0.259847346280619 0.0778323465945572 0.0721482880181307 -0.427390968873463 -0.476555623554601 -0.180316537635301 -0.0380310255471491 -0.306636387143627 0.148794342561645 -0.0961042808067372 -0.207188726934737 0.0573857892603305 -0.232999479194581 -0.175349062568087 0.00337056325876179 -0.152935322277478 -0.280382898540945 -0.152727215576877 -0.446372101514522 -0.240005525436973 0.0293874080516772 -0.0970123230383324 -0.254169419134519 0.198780574418887 -0.0900918079018931 -0.858707055346164 -0.261536731193112 0.472317656796554 0.512591755908604 -0.115618343308650 -0.734702968854231 -0.291753944741090 0.0305119701438847 0.0348173288538265 -0.145108140868155 0.132975686815480 0.255021938480591 -0.106031484062670 -0.285938924863881 0.0368880217585686 -0.0627318172014526 -0.188348019812403 -0.389059331594023 0.0107364991210345 -0.0398478422451102 0.108733006631510 0.188834633188993 0.180825494545759 -0.121309559189665 0.100977585891309 0.0570546454325316 0.0433438037993649 -0.107888758364910 0.131188787982410 -0.425492135168042 0.0834176309027455 -0.665606994574848 -0.205355956119827 -0.375608582073779 0.173578911593166 0.0686409489730229 0.194988389877650 0.311032305533712 0.317825786181153 0.293586460649170 0.0679544508744130 -0.0361365100458092 -0.0895051720434637 -0.125115551841514 -0.115275173488220 0.122884149905531 -0.0774545710305963 -0.0906963463869677 0.133313168571771 -0.341841608586421 -0.0542840282606742 -0.175229260473356 -0.321766999194176 -0.308553813013964 0.210625653435001 -0.132724285316859 0.0636624729280811 0.211876786385564 -0.136870827193481 0.379175629211836 0.350101808111934 0.480888278774238 -0.166276274545869 0.337228137931433 -0.0181339293945762 0.283870470811207 0.242039704173054 0.0651636811454704 0.207007658363433 -0.373876740654244 -0.775514848150715 -1.01811362178763 -0.420640814516453 -0.566260446398250 0.127313460310544 -0.0401090567026917 -0.230683146926984 -0.0957954144466023 -0.284745815707813 -0.196152764196016 0.138070212622632 0.141883163366817 -0.204088603083318 0.0253374519931207 -0.280708130037405 -0.794661971222270 -0.870696450963114 -0.162378530078958 0.0136446361352141 0.366690364156219 0.547539580879025 -0.108131044053596 -0.284920777743583 0.363749906761460 0.259431386634911 -0.386428175323995 -0.320224704794918 -0.340948276421558 -0.626171376830060 -0.188266808972206 -0.000478626879084311 0.0493480626314629 0.102637580962204 0.0839865295621398 0.0980517987597082 -0.136360270801520 0.0551001768479188 0.0106398758043358 0.198706113772155 0.117696759134862 0.382092450602557 -0.0778443823376159 0.124873313923042 -0.136687157963879 -0.0769311389037012 -0.333728118793023 -0.403770791057002 -0.0430436336691282 0.180133770051486 -0.206436133914441 -0.0832366044822921 0.180254119411554 0.283325828627761 0.232345973481149 0.428425376827710 0.210485543039026 0.281823257867311 0.0356831469549537 0.257055387202132 0.153957136430551 0.117647500485956 -0.0243525068317049 0.336634160781638 -0.0767622018709079 0.226176986080710 0.151395125033166 -0.355070268669411 -0.301703623592334 -0.480783299928088 -0.187002638518138 0.279114687065319 -0.691080240594003 -0.384361897549035 0.0526703535524972 0.766916989018097 0.348861221156870 0.0484021126296756 0.462524791141561 0.431273140620401 0.983226443535847 -0.652029834061601 0.0216487791290398 -1.06422114431657 -0.594966441357107 -0.362897614856864 0.112713727414190 0.292791362022712 0.254784378906191 0.409805686674009 -0.361063746799259 0.0152705720584821 0.0324061042045772 0.241454491511691 0.113252161322665 -0.0604447282694292 0.0874102125925513 0.0214247496384916 -0.181804268340795 -0.273618569683085 0.0628924326802864 0.417138733789314 0.0402499648015299 0.373471645190488 0.194380881824375 -0.227357433719753 0.0122252166906990 0.128720624822464 0.0808809457967296 -0.227423488107341 0.0498551137259055 0.303564048164679 -0.523640160700397 -0.498403694530598 -0.620366586706539 -0.344576077152346 -0.535755788710169 -0.380276929275550 -0.244735396427695 0.0296615057458071 0.232814737607557 -0.0323775037010640 -0.145399498462101 -0.204849858236497 -0.0149418460953027 -0.143842341243291 -0.316170665239308 -0.198006130399328 -0.195235111934382 -0.102834666584265 0.0327848820900158 0.0331534014505938 0.248680574964088 -0.418911394083054 -0.246172741924395 0.631433643713726 0.261767841354643 -0.0164245162874155 -0.508808914791904 -0.0788231371384204 -0.00871070361715149 0.370316456913733 0.202709479650286 0.220580029096099 -0.125310140484938 0.0973363629795984 -0.265083816182912 -0.158102367943255 -0.0920554673155080 -0.0541989059468209 -0.194172014788245 -0.112814931475524 -0.274570827178877 -0.164055737568493 0.00494005797510077 -0.268880481385325 -0.157033717859174 -0.681017952319691 0.635839234529652 -0.717758621438235 -0.445283969683943 0.475547174998050 0.657507348930581 0.254961293148555 0.199824953723922 0.499269626306888 0.414351556488225 0.992616137460410 -1.08587487884839 0.912687569039843 -0.606399066725359 -0.581734308675216 -0.737743158143218 -0.377584530112728 -0.309400382142447 -0.273993362345583 0.171314798848121 0.402591545018355 0.315093557562884 0.451269307391919 0.0488217552173423 -0.0177450481318214 -0.158493924822628 -0.00676802993457180 -0.409569061981086 -0.554686735814886 0.000826077481728743 0.302416183967215 0.119155663609843 -0.0117290083922719 0.412457590182763 0.276799566508052 0.139690581846038 -0.117415016715627 0.000998589523141491 -0.00579104893201470 0.129160354570793 -0.366081943609519 0.329838186531491 0.115626325603939 -0.143070212106261 -0.0728196654936133 -0.0868309653265216 0.103351324843295 0.0654401258569064 0.0931055542527456 0.209986300151729 -0.113991110794057 -0.0929674916968799 -0.154761516548564 -0.172736972687110 -0.211858305401802 -0.306942719257230 -0.266394752602975 -0.410717905540058 -0.275692568087279 -0.182031647217255 -0.305740010522242 -0.178721201618582 -0.542625591712358 0.103465835734220 -0.308114590030448 0.583151172328663 -0.670873969258486 -0.532368826261691 -0.274147081138845 0.00173084732846060 -0.0404342420776402 -0.0763346486176350 0.144666881333565 0.0188011005536215 -0.0364543593488578 -0.0507777352719558 -0.243415541454489 -0.0690587358230572 -0.292594511853512 -0.185833651558029 0.0664220917981850 0.0645505188514228 -0.471999602825474 -0.148495175974194 -0.0941946346320018 0.0619008851581126 0.171386314784852 0.0748274160280988 0.178716875645003 -0.0509473437962987 -0.0995052169436211 -0.0327684990002898 0.0722933426994549 -0.317275839341933 -0.0720095630120521 0.275496346511014 0.196691677512997 0.0564831173688446 -0.192815476771979 -0.452965503092794 0.123322134853886 -0.159146006363229 0.0438573867911777 0.187148255918466 -0.272520240386253 0.207258389050474 0.0503112174263753 -0.369339916768803 -0.213064011583336 -0.435952658063251 -0.178922831004769 -0.224744937100441 0.438212551514268 0.270398206272893 0.355242161565462 0.00152272387701897 0.489218729004542 0.638303681645095 0.320710182204687 0.366911924626081 0.551877194105405 0.434309160908824 0.305128792391643 0.394440587173146 0.316071725737529 0.137228970524753 0.00412126120191041 -0.168236740526643 0.0366282687962291 0.105484871413301 0.321635064309007 0.525750080756161 0.293761204457413 0.155566710881924 0.0380932713300418 -0.0278392893371981 -0.136693877325271 -0.335446814308316 -0.800538941414227 -0.563747372550644 -0.179741540346769 -0.543741018582916 -0.520034820253769 -0.500779818729968 -0.305918118936891 -0.758325517834091 -0.463234791550607 -1.06109723471934 -0.771616152018069 -0.787043979582015 0.360960453343267 0.0263411295389428 -0.718657469957276 -0.0822151998060644 -0.364280189453231 -0.509375380899085 -0.308751333726596 0.101004077102299 -0.181803932387965 -0.203191967145590 0.0247520009393892 0.0739734096745297 -0.198509034472765 -0.186984365323100 -0.0689516886664260 -0.0463176111258519 0.160421188700790 -0.494611923486159 -0.179555137136712 -0.0159503431278553 -0.208352876090391 -0.114806205166865 -0.365829232095997 0.215643136016002 -0.825033410060798 0.0496560477802224 0.0325018552204387 0.125313685268609 0.505972789052695 0.258388817855752 -0.296997026247831 -1.05687800819265 0.209004760003781 0.380338445225605 -0.601585485105444 0.194674147504785 0.0929178389308597 -0.492260151805541 -0.295106009203271 0.145638905503220 0.259494642088702 0.408137385713928 0.334639175793415 -0.105235441411985 -0.315681602241396 -0.358491832742275 -0.257002839110232 -0.519168395937188 -0.244979562528713 0.0480760523830000 0.158163497841569 0.185216866076223 0.266568568517537 0.303518710050703 -0.382678849383969 0.0727609613142196 0.515195185234879 0.269772639216737 -0.283927747344228 -0.144252664415139 -0.276318476851495 -0.186902559287410 -0.0763922509436832 -0.265589176474108 -0.0941915924849016 0.229083028121593 0.274117623869275 0.377320508765643 1.06790185149089 1.02365418383783 0.417709778304056 0.133350747960752 0.481396315007038 0.592837507644206 0.535708309712593 0.396196019681946 0.0838226384723234 -0.0129734683083498 0.236024666401328 -0.251967382028360 -0.269246565936023 -0.405207982811891 -0.380467838862937 -0.611080788377448 -1.12252546375290 -0.756930328309667 -0.711483425070346 0.420932360100718 -0.709770400560304 0.158535037882965 -0.797439677730073 0.242611889718957 -0.313619026890440 0.258971485017625 0.0869644577703993 -0.0542458948973880 -0.0531566294852389 -0.302000222404536 0.404207978905519 0.356398481625911 0.561977321923227 0.600391719908107 0.341684614193907 0.630433532236185 0.145105073887754 0.800493417689495 -0.0125313127231825 0.353787465803745 0.0448178850595746 0.304466456632388 0.125146702251589 0.361005039472726 -0.291941024746434 -0.0784708703273122 -0.266990797722779 -0.280893594563569 -0.0744094565151080 -0.581161853120287 1.98662670282638 0.125742997294066 -0.0942275962262758 0.684581180697700 -0.478282229113499 0.496320111524217 -0.287265819711752 -0.436097648002113 -0.623061471105854 -0.439712913590581 -0.159787585360131 -0.0995796208322138 -0.184503455607083 -0.146531854808397 0.0131805693074418 -0.258962425402703 -0.485212483519530 -0.595805705287098 -0.408005223860214 0.161927843049528 0.349791340228440 0.225650695274183 -0.727976897780622 -0.573186346356786 -0.0506648791508431 0.738668157688781 0.624704119765746 0.165867715900659 -0.196585884086847 -0.396964442035188 -0.449686546459755 -0.210948103232151 -0.473646759042036 0.908110776448873 0.110569638009609 0.108190966374653 -0.00201069163219075 0.352071647945276 0.797515015821540 0.999877947120275 0.872532900147447 0.511889304735713 -0.0102898845255155 0.0468380644077108 0.153109032012252 0.182433476620236 0.130412013950226 0.0626855295682606 0.267085692162391 0.0445367806012306 0.0731746881458993 0.120156600003834 -0.279570589387054 -0.453769381634946 -0.565620948287290 -0.837370892391428 0.301681524888102 -0.281960757730088 -0.213854521890494 -0.285071500146450 0.205403445458753 -0.247151720065176 -0.484727668682530 -0.158299088441202 0.0120135154059952 0.0985356875891632 -0.244730409232322 -0.291561010988337 0.149009543273953 0.394926808734066 0.462270951433929 0.380828357597155 -0.000160640950571775 0.277084838491165 0.123189181173922 -0.0919527862173047 0.163700191835863 -0.0551074360331541 -0.207600214423303 -0.141646001744003 0.144478911815957 -0.288228365310197 0.0745866757087664 -0.161067557300077 -0.136326688912377 -0.127797867230566 2.21656070557267 -0.106752239211921 0.228241832714908 -0.352661087965795 0.0367436144470747 0.739674530675815 -0.564414075725120 -0.147368941854007 -0.236460165586468 -0.441723491045074 -0.117113554991270 -0.188448339580719 -0.181535616533307 0.0904682353750814 -0.100726122645382 -0.0102699395698296 -0.0656041475334851 -0.293997147787700 -0.355336008904872 -0.210545586639918 0.0458697031327457 0.101025496474867 0.125480121256227 0.679673761344087 0.0851101483144120 -0.0802638801604639 -0.103466557116461 0.363042039946207 0.364604141218011 0.0940655489291345 -0.182580596622233 0.158601537347282 0.00591133495586496 0.119120665060116 -0.576889107862742 -0.302787547659927 -0.235030616087125 -0.522680685575886 -0.789696000966178 -0.460203497351545 0.00413540791078999 -0.571314520806073 -0.164053652631015 0.0872043344216510 -0.329301100129337 -0.475184379081658 -0.368733444562064 -0.428252848151996 -0.347765214900886 -0.249614478045182 -0.163385594943387 0.0809712526679315 0.372008155936205 0.609291493796065 0.568276953971141 0.755567942836772 0.998725071684456 -0.345089307157498 0.549139449662167 -1.00209253400620 0.534799506135146 0.182800713237084 0.0977451390702136 0.0829880328905655 0.0193290634783501 -0.0704533445831098 -0.226036834053035 -0.338597476108068 -0.195110909190414 -0.350891289489322 -0.594970098180131 -0.212167026511218 -0.289714251131784 0.0935755214231680 0.0194792626684232 0.00142003650369364 -0.197171667676045 -0.407824165853520 0.0829068181957890 -0.667697585688822 0.107152737139216 -0.397298956607996 0.742299396369359 -0.733041425749050 0.0953357013167564 0.454238551486417 0.592183336449220 -0.898998786040678 -0.339000024594020 0.232514219346742 0.178412148616837 -0.413013474338304 -0.444393354832567 -0.684493922730706 -0.293297846501730 -0.422414806131165 -0.325675299720475 -0.566053829621036 -0.362745735405156 -0.467659386428863 -0.574848129968306 0.0365640319517773 -0.127676556873350 0.0597009778368793 -0.167412428584554 0.122918248567197 -0.637463561470673 -0.499323425919383 0.00911461316904467 0.194995002457237 -0.125933764874297 -0.215432918535915 -0.00599665183960195 0.372953481952735 0.102635184709203 -0.173122179424719 0.0677313464220744 0.0257758337219000 -0.419025694182061 -0.258672146158231 -0.422256704404436 -0.110051824109774 0.0158402216815705 -0.227455111534038 -0.386849253874678 -0.488390688163372 0.0266038886255274 0.381340902273285 0.327212958203992 0.208103798327651 0.182411633183621 0.121762414922327 0.0994340175169026 0.465915745592648 0.0931291013245948 0.543008319204928 0.331208995868004 -0.0177637295688540 0.453956470708814 0.127534501904940 0.111097901534504 0.253881169158625 0.571730629215887 0.732321288950982 -0.286187833007567 0.200702761524244 -0.480333418008966 0.777107029529954 -0.0524659156216640 0.492039876013136 -0.223137271882782 -0.342451738953322 -0.291580434323507 -0.376606473376965 -0.0305033644499006 -0.207477574850476 0.230201128388513 0.161298260994916 0.0333625088138168 -0.0318407114661863 0.103966240681566 0.217977835745719 0.288819016833162 0.148576762018160 0.301966733173199 0.0869758696244326 0.0341626932123760 -0.0275245401502063 0.142313780860274 -0.106216635554111 -0.168642087170300 -0.102387775539534 -0.293151336832117 -0.124591137264214 -0.893082607603726 0.569250986852056 -0.309948369520707 -0.160866556149638 -0.359629529747286 -0.0215890485037785 0.279811038487783 -0.0985618305573284 -0.216482330022723 -0.544790651610453 -0.383727694218534 -0.145699173680569 -0.189994346176167 -0.0269826251399321 -0.363269848272254 -0.387078765531414 -0.258822306644677 -0.278068634600911 -0.175812642307222 -0.0343796024140352 0.261276098969237 0.330543803513608 0.126539612073404 -0.228510603872877 -0.529394646389985 -0.178543008701021 -0.382914819396964 0.335383499186955 0.474085532091682 0.289817144807261 -0.274142812087474 0.0433604322624942 0.156862198480251 0.277390865030384 0.163483461664696 -0.525343036640995 -0.337388076258196 -0.305188583917437 -0.317450635119264 -0.327524353484755 0.180911112893183 0.0261724587400860 -0.164994955283991 -0.369553595739810 -0.315159699487863 -0.0745837646428759 0.143481781136290 0.102524543898092 0.202698673928235 0.173645351336662 0.158265559106604 -0.0228401132530038 0.205053847767614 0.0624231902352168 -0.0368303651920434 -0.0377218626189523 -0.266966290960550 0.179228163323252 0.221428164229104 -0.498304178325226 -0.672915131248522 -0.0261690642371171 -1.10551943896499 -0.269646654200091 -0.354730261770674 0.0635149614477385 0.125179120220011 0.124509378893672 0.199593264303661 0.222097152209893 0.142377631423587 -0.0195202118217898 0.0533393405438051 0.523182461988751 0.149526342120986 0.422148215677183 -0.136539450927738 0.119020845771406 -0.221292816050735 -0.164412556914177 -0.321601136311188 0.216378441932808 -0.579666669375074 0.379607771022215 0.102363570684572 -0.446101897171259 -0.753564699356501 -0.578723586498072 0.327586174167346 -0.574956017337573 -0.201224040648092 -0.231218780562399 0.487590488502277 -0.207953415243897 -0.290951720421275 -0.107322751718523 0.217758867879372 0.103311026149278 -0.0446738574248390 0.111662884251917 0.125726492251848 0.289338180916300 0.147339964140971 0.113988467207520 -0.00894017930879621 -0.191666519877161 -0.104128290670367 -0.578041545922028 -0.392909644300105 -0.242375091116537 -0.241917862679181 -0.266205046357849 -0.568278290919955 -0.646227081885929 -0.644318247704700 -0.470877105476266 -0.0794589632252732 0.266051058797152 0.341949743084072 0.371881423697487 0.0364620140949922 -0.0188863510389953 0.396845404141264 -0.280003266893170 -0.412401059406491 -0.119165377973953 -0.338916036265321 -0.434380746250608 -0.401090698507447 -0.0782334558861814 0.0478076211171205 0.236313253397246 -0.0738616074967630 -0.226870883832205 -0.00647207402341073 -0.213645608653910 -0.299908997000405 -0.288123860850960 -0.0880773757141390 -0.166098029486154 0.0220586967008546 -0.206415737847375 -0.00612361695785560 -0.207939044874256 -0.719562475996583 0.0411960946874795 0.574278338344722 0.440220107325341 0.283451687547373 0.162815933246913 -0.165685569727927 -0.0124032171199787 0.149092655351034 0.0440482066869119 -0.115989675060449 -0.161131245365735 -0.122345789322331 -0.181890697708612 -0.538474961895814 -0.219503037674978 -0.271245791966928 -0.133497520592526 -0.375337031364467 -0.0878523132486064 -0.504115494794790 -0.194931518766345 -0.145293506373239 -0.107586624341658 -0.414230873665486 0.473598752692731 -0.190608061872337 -0.142590108812618 0.422558561848928 0.792401461941879 -0.0587772017708461 0.0308785545640900 0.637733729331056 0.408786198736415 0.589754981999512 -0.874098905180693 0.250449069734580 0.409979114041000 -0.384423171142333 -0.243956721446560 -0.140590551519656 -0.132274401639498 -0.0387064658607126 -0.173143455922373 -0.333938713256141 -0.223282630235613 -0.143776941179113 -0.0518435305140573 0.0577269305072230 0.0955380322420886 0.0832549611781195 -0.317911526345807 -0.174606613080843 -0.417017425787346 -0.0680597327077043 0.326495458261080 0.353806006478888 0.0716213027253816 0.406892690719341 -0.195658066864122 -0.207087301115737 -0.358935146369999 -0.218777488168544 -0.300478971110278 -0.145974511174661 -0.0574034479013624 0.00133028607046007 -0.0798950082766045 -0.123146821235373 0.0388365330241850 0.268282235272376 -0.0604941756347076 -0.183451328273331 -0.116031142332491 -0.193203082455620 -0.308158420874419 0.0436866417503204 -0.184406485046995 0.138470439334421 0.232307676630518 0.220387972249170 0.134244662447044 0.292207578627688 -0.00425817325381436 -0.0322025527680133 0.288283424910201 0.236870166919125 0.0583010383214613 -0.274250383601767 -0.218274354910092 -0.205150034796345 -0.0378710429328695 -0.0187969785712502 -0.0514361865217927 0.160605495643011 0.0663743115174358 0.214714923585310 0.335045831567760 0.544261356546838 0.275616022635831 0.347699387986271 0.300414806482585 0.597800792489872 -0.0512614119001676 0.0168956232814956 0.111931701570914 0.158478014399470 0.337576447204577 -0.222947709055890 0.241644371860102 -0.409903139342256 -0.301063659531326 -0.236785215449279 -0.105598758189986 -0.556983154715821 -0.0575822467213020 0.0739556943767288 -0.476102668453063 -0.968573322566397 0.291677202940022 0.0467375903086505 0.127948750976600 0.0845985458380583 -0.208290591271439 0.201988598647815 0.265142406909500 0.0294714363156755 -0.118555909059063 0.0123728295192796 0.162288963661526 0.0461507494487541 -0.0949164321183657 -0.0884969673616637 -0.365703849324142 -0.706857622969822 -0.364950138998465 -0.203329463451431 -0.290473231447054 -0.205510731688954 -0.171318812850031 -0.186202661278358 -0.141208521259544 -0.359121993739720 0.295049610967979 0.768797689489247 0.642102163328011 0.278095189154879 -0.157117873919865 -0.382420584945715 -0.385284856421413 -0.527864325689746 -0.269704410273377 -0.229476377054365 -0.172466367846770 -0.0942871218898610 0.0650945814403918 0.444003572780361 0.496367524423497 0.779086995390728 0.230467195355427 0.156076594201431 0.0269243280666536 0.269133790182992 0.397027099446377 0.0808504217834515 0.155639451379321 0.271817318790541 0.312126739933128 0.141233799303631 0.220146886529991 0.171602266524692 -0.166031298259210 -0.140567976061256 -0.263020894454019 0.406187079550274 0.0713029246660569 -0.342352757357911 -0.562463169984810 0.0985322717013818 -0.198243661281598 -0.220255247474859 -0.277656690730071 -0.359468914689168 -0.363567501620788 -0.196541799748039 0.117868341564297 -0.0914677273867781 0.252324968963268 0.386566707592519 0.354052719762151 0.226572465362694 0.157284489969600 0.239303266820147 0.0856610221996508 0.0398882473002248 0.304360650202719 0.0597119532480269 -0.165378126429434 0.135769286525194 -0.603745890861217 0.389837063078706 -0.0218392077336624 -0.353654211854220 -0.469661497069236 -0.417187480698420 -0.407231751578745 -0.132405196344146 -0.560308334497865 -0.268878156368546 0.171696154426145 -0.702961579860664 0.392214938294510 -0.218722782216251 0.210904595473269 -0.0672370005419043 -0.0456829315707617 -0.255753902091743 -0.171921369880789 -0.0802355331469908 0.160896046994426 0.115691815846786 -0.368141050383692 -0.224026710978284 -0.273780133780545 -0.183827971147060 -0.0153387899695714 -0.515123236976153 -0.964962964146351 -1.15246674664455 -0.470774898316812 1.04488114896973 1.36329467521686 0.599540747067472 0.140087541032644 0.259462296067723 0.241214202820842 0.0726617030776154 -0.220020007158659 -0.806913151952179 -0.793551867528905 -0.543725706427195 -0.514309535324368 -0.0917605724465622 0.720380514969478 0.797583451668707 0.767426558177208 0.222626050732651 0.124182120030537 -0.179366328718584 -0.00259960085829332 0.0275885033433356 0.0969563718916924 0.0974604472956105 -0.108740918458870 -0.217612750651862 0.163014978802628 -0.366377731101270 -0.531782757828151 -0.502210139945482 -0.428808364255062 -0.232503922941657 0.160288050825892 -0.0828452358862218 -0.544451108166536 -0.529183154057344 -0.396669881841484 -0.174536593891883 -0.0776015458803216 0.256677187639537 0.500757406747717 0.135367562310682 0.0105182771607894 -0.0785928830343874 -0.0584252777543642 0.459853589658872 0.164622860706963 0.183916339554895 0.0697436117989496 0.200613723613383 0.155513736008810 -0.344030077866737 -0.853300845191457 -0.157928886855861 -0.742023984365769 -0.324492747197110 -0.432539305285601 -0.291202468295395 -0.123720970484333 -0.199252134104111 -0.446635048300969 -0.592042798644673 0.0458321888820776 -0.362104989291697 -0.213886118205405 -0.123321214113323 -0.0106519259201082 0.256269943728161 0.0295606036215125 -0.368323109806725 -0.280761039732122 -0.0694022300851424 -0.105326537371941 -0.0132124477445710 -0.241499852069841 -0.190344282653890 -0.0560494820483427 0.0641927989343100 -0.157259061218370 -0.403077910753837 -0.329250994717794 -0.869027461261020 -0.697288834851158 -0.203173951074369 -0.449985693027282 -0.582386503063048 -0.392808131906633 -0.369138467370787 -0.310207897831119 0.348775653623358 -0.375533959435355 -0.459105908037035 0.371563557064117 0.372645861860753 0.283683892966674 -0.141052214861093 0.0215255121585051 0.176239081152314 -0.138030243844337 -0.234171236482067 -0.337289605723073 0.0372864160124347 0.0757111797318549 -0.0588561740374821 -0.209516940322576 -0.0840817366267119 -0.385575760828351 -0.547002723125561 -0.419337452677252 -0.237749698870543 -0.0892137238134154 -0.0737235286351130 0.0864487303385480 0.143601666771050 0.0838638968232155 -0.0398330807336281 0.0208455953280788 0.136260644124476 0.271078058896155 -0.419212583054576 0.117426354538678 0.128860186028825 -0.624747277194698 0.0405610772899134 0.0134012291812492 -0.0962016554936588 0.0343813109763887 0.226287519628676 0.0575043209685702 0.00526061064590849 0.0802229719826222 -0.00879075037528501 -0.230347657486277 -0.0600939848750299 -0.0714360683112954 -0.138372620562583 0.266040714440043 0.482904422227059 0.131456222775163 0.104046268872783 0.209490784964150 0.0219180339311084 0.267030101294346 -0.297877281808528 -0.145734097986082 -0.270485682728053 -0.172238493052754 -0.178727129438657 0.0932667083197291 0.359926784195176 0.206256880239148 0.0361525078885610 0.176268843539444 0.255445055680649 -0.118489764688965 0.582958187819912 -0.451606818998690 -0.338154373312792 -0.0306729857176329 0.0291897113606528 0.514142901964907 0.501967902367454 0.264552058552416 0.532643083388854 0.357002624441806 -0.0549708950106503 0.0548736546532945 -0.141676529943767 -0.165257789363293 -0.259043166210680 -0.940195785921074 -1.04650749062247 -0.926945691438109 -1.10999773099126 -0.742788493031971 0.489389317438969 0.625724476024723 0.277845226425742 0.0284591143623670 0.166767003483411 0.0105700608010081 0.279688532077233 -0.0664141298582168 -0.539687221118968 -0.363728846145428 -0.231433975295250 0.0252005127276175 -0.139832400276022 -0.249282939963119 -0.151222557076049 -0.423301320850680 -0.919899508621535 -0.343749270801855 -0.138062596487907 -0.00189551848203409 -0.0613196055900088 -0.0597402296260365 -0.454025249586648 0.0977115487595923 0.180338734890909 0.103634047605242 0.00398252133072164 -0.149802307624251 0.0190710140391699 -0.172653389384762 0.0316928463083928 -0.618983334427520 0.0968828155826947 0.666233698661402 -0.285915993349531 -0.660075540273405 -0.166413414194291 0.120356822804913 0.327181541279004 0.184310667182564 0.0907442165611578 0.465657460094127 0.487371972570850 0.257088417518101 -0.0477587085516879 -0.0321371218599460 0.154874927723628 -0.248440362940837 0.155143302174540 0.406281650930152 0.287299059504087 -0.311271745005520 0.183871870881287 -0.0804177653953836 0.184900144835188 -1.36175811530836 -0.254565597472027 -0.224641688940364 -0.310532931696421 -0.168288000931104 0.242239877803469 -0.184780285318588 1.04994216916703 -0.316792618948805 0.0324942424883963 -0.0695996776727657 0.329201659650178 0.0575415699216033 -0.0293823641873289 -0.470539012870389 -0.202284211583283 -0.221596129438777 -0.224684685876984 -0.198707615539493 -0.337100941819015 -0.333653254956698 -0.0541063464489857 0.319252937195909 0.621155710201839 0.551930296816725 0.237722606436584 0.0878731004177593 -0.0338088284143436 0.219768621488305 -0.162015708051098 0.0272020215211849 0.0585009753889226 -0.226895182612711 -0.315045943448940 -0.116355524864365 -0.137616358305179 -0.321137004712895 -0.357117031439720 0.0925700219478566 -0.230956202995854 -0.472804240527976 0.138079651298378 0.167326667747806 -0.174553608114155 -0.311102770915143 0.0370769587456423 0.163142233521244 -0.129761114704454 -0.548279779144434 -0.244441890369545 -0.442069079829341 -0.280860310674020 -0.298282607357529 -0.0757247154549351 -0.0818971028527641 -0.0290648265615946 0.0691718945419960 0.248992865746455 0.176397094231525 0.285272227030765 0.231397727114234 -0.108535434650336 0.00934159735371479 0.251726186096393 -0.476034308500098 -0.425857365519851 -0.285176438335247 -0.689346101405839 -0.388139661298400 0.329193535177905 0.540599677608691 0.387518682311504 0.593781578855730 0.305321045220952 0.459734421089538 0.247772072034296 0.211322512552437 0.255818643875148 0.0853921426924125 -0.216674040219326 0.0799452225640552 0.214401723042889 -0.178481831399652 0.0344722234466602 -0.285744754787082 -0.0470738225406184 -0.367064617680548 -0.259086347776973 -0.536558739101733 -0.0855666062881267 -0.293826628863580 -0.100946469016582 0.0360124706952673 -0.292560306231852 0.268521595815090 0.0975179422289658 0.205865120769512 0.0468403716574165 -0.00138816585193261 0.174055949915143 0.0667250596692462 0.0152864088107513 -0.148834219864863 -0.0934649570584812 0.146297841234168 0.00844077790816586 0.132989411300802 0.430448629955846 0.118427446939917 -0.00109091644785195 0.00587223602804355 -0.130408155178159 -0.169702155948801 -0.374006685595724 -0.230555779731078 -0.0798369710840016 -0.456349102831541 -0.543034637075447 -0.253481481087139 -0.156894193945134 -0.323107310070581 -0.0224628338825661 0.106971911366289 -0.455409886969367 -0.426267952756277 -0.396226365706915 -0.494137427653048 0.167411147793641 -0.0411306083204477 -0.169356695518085 -0.0850452342943182 0.188749540401151 0.0691312933381758 -0.403888590655801 0.0288647126733660 0.209131750122219 0.385863238250797 0.477826915602981 0.508577302492431 0.366314109799793 0.0626815840400753 0.307515644694785 0.150850061583637 0.128310809751311 0.136316480426917 0.0441657376319369 0.0767930758239012 0.284975692846130 0.306251059065949 0.441925715617368 0.226599452843957 -0.0924052335411229 -0.206579712237672 0.283167795745664 -0.350764812533739 0.0233572169728290 -0.0786454443491599 -0.216245886104739 -0.0191160594225536 -0.150688184326859 -0.0425041008060292 0.0355600584649733 0.0321813968394127 0.302489361621026 -0.0330360076097263 -0.00474685791170670 -0.0679232480426505 -0.0913102638958883 -0.0276131044917699 -0.301550420358579 -0.339298998120032 0.0157418191390114 -0.203379754563134 0.172646517285989 -0.209260144973017 -0.111389629605386 0.0383442036706242 -0.0848428221375935 -0.464056422070460 -0.502959630956691 -1.40342397776894 0.645609257079755 -0.146070569817133 -0.437125898278843 -0.259973928497640 -0.109783351410896 -0.249861292868033 -0.235233106652218 -0.0216724015125607 0.0960099018385728 0.0176149392749276 0.498742306443971 0.692016677247549 0.421795669726478 0.289418578561181 0.299415482208815 0.305181570850564 0.613224214843374 0.348325701199004 0.223557654150527 0.171071543686838 0.0775166720690307 -0.506057111134421 -0.655862843365035 -0.296678741340986 -0.660229430569125 -0.372311123448192 0.214971873097186 0.275383719404437 -0.149898353852264 -0.742925957851951 -0.521907071832222 -0.181219086736815 0.0210808672803820 -0.0756840754665163 -0.644944264122987 -0.134591256941156 0.156720633500534 -0.307545409990963 -0.283219180735866 -0.227289376525824 -0.219053640293892 0.0992668627380146 0.228816479424339 -0.110743944904119 -0.252005661353952 -0.400480283023202 -0.513589218551164 -0.263102430321843 -0.338917512829373 -0.0376071711815377 0.346579389550367 0.522998382426592 0.557349287309986 0.664782471858961 0.633605194874184 0.267066264726746 0.0794540994192724 0.312062274760998 -0.662463257169786 0.0970233833696087 -0.212790514523713 -0.761516864252523 0.146462209657349 0.0513605718796477 0.238404947551489 0.428710016487834 0.243130033353706 0.0153223472034516 0.219143157987046 -0.155443180515522 -0.0258467640499063 -0.0859206435428734 0.136866341378559 0.292899785405346 0.0122935877109034 0.0571139950428716 -0.427767655527170 0.195376057249674 0.436196869259841 -0.0125507061815131 0.471733042398660 -0.492796029779618 -0.0393248316641239 -0.279051023107722 -0.613075412226066 -0.536812821084949 -1.21235869518691 0.0432907961863638 0.0552943733001350 -0.157463690650928 -0.554050577448830 -0.155760684755539 0.497191113168996 0.129536748813393 0.0302520692898893 -0.0919133808287248 -0.480531445332886 -0.0780479263165834 -0.0507866864714952 -0.0734922841059649 -0.149029259628737 -0.156359912595033 -0.242442739510737 -0.483999289975812 -0.418600413494944 -0.193019416478758 -0.0361609213104570 -0.127626046453299 -0.000195117752991874 0.177144536750162 -0.528271860652476 -0.438033467811682 -0.209673608388246 -0.147818492769041 -0.0162306188408302 -0.341115738703597 -0.169173357763194 0.0914897872236383 0.119854352370659 -0.173429412350641 -0.446858428279757 -0.501804755625345 -0.529504892657250 -0.214296636833167 0.0773883545856306 0.129919936721773 -0.182925772832537 -0.0268158259058288 0.000337488445370329 0.0522996701154034 -0.275730477782267 -0.0788757847961898 -0.0676036580644632 0.110142948565546 -0.0429301362297920 0.198333449747335 0.188136536151327 0.299875603691003 0.272783659020542 0.246236625842585 0.423498018990339 0.318633472206021 -0.00382590783091280 -0.678904564894864 0.267230730488051 -0.285050191139451 -0.200287627280333 0.108179573605837 0.369305386491907 0.170295838760645 0.00310001470413282 -0.0993307593791658 -0.106657879648057 -0.314010588232478 -0.158153780911943 0.0784986796164778 0.171665863745317 -0.00778081962845153 -0.105895068052219 0.243650300160708 0.0890948544113900 -0.175043331985300 0.185613908919681 0.294197578545762 0.232974224080556 -0.0932633576515648 0.294333725141082 0.109264776511570 -0.289554357354857 -0.0417067563805500 -0.384271244968022 -0.756499429742072 -0.648591285049667 -1.35611666619917 0.749000722174507 -0.153980738032685 -0.199300957142100 -0.811887760256850 0.0495774723868129 0.353408756364913 0.0664120439733617 -0.240569698021356 -0.189630495908988 -0.141487819985569 -0.221298997541729 -0.382514671339754 -0.115445515519964 -0.00383501878908096 0.00898630806816806 -0.0761168358505554 -0.367836605527477 -0.0753396646329242 0.0456083939576859 -0.346195207383268 -0.284112192520805 -0.238652000126151 -0.210509198590607 -0.225262172508776 -0.379855074025701 -0.246471915158397 -0.0823627936133278 0.0365333956836170 -0.0610965384610261 -0.399282655434952 -0.171298115394271 -0.248088062336194 -0.293573496561470 -0.150111632082551 0.109520808841088 0.0889564497407616 -0.0451615526500587 0.418322137889734 0.503397194061216 0.481232420314275 0.269140118203524 0.261792734407128 0.159411278417083 0.108661887254430 0.209121797121988 0.131113709464997 0.255781712854112 0.0938600052267045 0.312923159568290 0.0816962437445680 0.312240709228908 -0.0915838407696456 0.229634445252293 0.108406518978391 -0.0918647641770987 0.0125409538012672 0.0654109664037204 -0.0661454306643838 -0.154446200584832 -0.138599569735325 0.0632158145167353 0.139966089826813 0.0279024237493982 -0.178767724458805 -0.146240859855445 -0.0694483260177312 -0.124782120924623 0.244412770745213 -0.205831573238135 0.0121663275322107 -0.135779691057232 -0.200556187914366 -0.118021010665212 -0.134620623529616 -0.113682048277862 -0.126711741682042 -0.142224574233838 0.0271928521637119 -0.00433971516003561 0.0199340294737388 -0.114859904919908 -0.166627117423254 0.0786524667767259 0.00819711504147184 -0.320037300175921 -0.367230063140990 -0.289057545271532 0.212575323315971 -0.0413089241101382 -0.264669115017034 -0.357217635675401 -0.222806831563156 -0.103110569759346 -0.0831012802775188 0.182629694204126 -0.121661649912514 0.110855899403295 0.359339853774175 0.0355927517600776 -0.0817800488928826 0.0268176416402414 -0.345983697950703 -0.184991189137014 -0.366532706871381 -0.185435131535021 -0.287116801032680 -0.0390669838830395 -0.107680201665569 0.297349179957044 0.254620225439191 0.684265169732522 0.371084442112039 0.115722630803140 -0.0309518410965637 -0.415794928512140 0.0310437740558910 -0.212713031688419 0.0294252940114276 -0.407526489216361 -0.310488897928668 -0.0929042605590668 -0.723197138315493 -0.296792496782557 0.0671694979240871 0.292076552515064 0.508360638539663 0.554756566479256 0.223373295026530 0.509378093014114 0.153063070720052 0.660610670052527 1.00414317709911 0.377986029817748 0.324713001561519 0.306489821557103 0.339616726609688 0.0574680645968568 -0.201170019464146 -0.395009156537546 -0.369899673290893 -0.205789925071431 -0.281398587020922 -0.143345525531783 0.418338892328480 -0.799655029747571 0.158006878209373 -0.628104692128562 0.457628542339338 0.451660184009047 0.838541770555982 0.527364490866076 -0.118323367640802 0.0242085205011602 -0.237822584724324 -0.101821955499287 -0.195923877027153 -0.359039416786218 -0.697483345500623 -0.256255877082818 -0.595686495641528 -0.543735158630480 -0.547825076298827 -0.137147481883579 -0.475649144791914 -0.0911571615777504 -0.229701730773417 -0.145733244515337 0.0930384895677084 -0.389057394309053 0.168032182994071 -0.277777850439987 -0.531879589454472 -0.488218395535319 -1.63477639355147 1.91150723034808 -0.770510258015620 -0.760390712543457 -0.0127487225822275 0.278712716258355 -0.653167915525402 0.394520213130545 -0.0795956930926370 -0.202364011289844 -0.301677094193405 -0.415562744415923 -0.263187214761494 -0.488073883825697 -0.347223527309077 -0.196505293491043 -0.337392278537160 -0.421458040728672 -0.376400160478172 -0.374239333132732 -0.397036616270552 -0.278034883927763 -0.206231067854443 -0.258485942273779 -0.366804150961285 -0.347294895311672 -0.618384688552679 -0.421587201680037 0.0235560470792897 0.125245376921813 0.341616013594131 0.0281745164251172 -0.0965070945010960 -0.0904063239263089 -0.162249811071663 0.0805306105871807 -0.0999745301605913 -0.184456871991398 0.210459026274578 0.374444763074688 0.669275153143271 0.482696559415918 0.256927448559873 0.0595333737212047 0.103783639263545 0.199940761402577 0.194815134741990 0.324195363866696 0.257481795324732 0.208850909205417 -0.00620386092928818 0.134196518007963 -0.134538242860033 -0.162369974086106 -0.277200432501556 0.0721694873003590 -0.0661216762818322 0.306760258363462 -0.0343493504911184 -0.375544655096163 -0.207488759838291 -0.435593583261130 -0.452590106400968 -0.438095600863681 -0.398416039824330 -0.217709104143499 0.137833838981242 -0.142437108067520 0.188673196158325 0.140740435622022 0.239046114712939 0.327410577913751 0.130145451291054 0.0580734860096314 0.0510264250213639 0.0156284757546042 -0.0889862182083987 0.00623584382838234 -0.000388446032828791 0.0518274966662660 -0.221585824979280 -0.132320355876051 -0.184819497199894 0.0787789189873123 0.135580906166238 -0.476381949388370 -0.549930093165007 -0.193992641843757 0.444340043634776 -0.105754567853603 -0.212149310590689 0.380027890531176 -0.198409632574065 0.0632112158970523 -0.318477248099376 -0.180784778280422 -0.251702149588761 -0.244168763518899 0.198182385879431 0.192048189991814 0.270351792683178 0.332329065405034 0.0930574528218449 0.616522503660149 0.155000575195316 0.0457131363354767 -0.424383899535652 -0.0148993634665733 0.136348392307247 0.0690357260035338 -0.630592638655775 -0.708156419048539 -0.311504451970692 -0.00441908674691342 0.217047139097120 0.310124910136821 0.306318191050508 -0.320360207808668 -0.371541114520690 -0.227234683356259 -0.390629497986276 -0.388245196707410 -0.0983726860748456 0.164106581720049 0.240193689534761 0.297857468800635 0.538976908613956 0.383382630111579 0.163777042710808 0.0257230719472829 -0.167096487156189 -0.312603758773814 -0.136800526180294 -0.0503036861304345 -0.156230488659066 0.256723860487577 0.000966856647346723 -0.0477624098655824 0.201014286334714 0.0974415412587348 0.0232730806831409 0.250341634252473 0.346640978306782 0.615827332071150 0.0674080549458998 0.180778321719931 -0.838623164813984 -0.149644188398337 -0.225533625403018 0.179799867419208 -0.0580397504401589 0.0586339296453703 0.0756465183468336 0.226248386666034 0.0721526208121072 0.153144011269739 0.258239533292541 0.190734346272269 0.351540386545591 -0.0634136888221440 0.0508478417624411 -0.128660776813208 0.240192090631203 -0.521218217635815 0.249509557824099 -0.157955934076358 -0.0776776786370660 -0.341128717423268 -0.0190979399088399 -0.140698530179200 -0.384193570638953 -0.234652670283447 -0.626336661119682 -0.794886894512956 -0.577858027864708 1.18034725612440 -0.343200902019906 -0.459476370014443 0.373224840501053 -0.372321157558927 0.188878988903466 0.162183153835292 0.0983026193990911 -0.0567604622751983 -0.358046049393322 0.120501864192758 0.237457499567716 -0.0437194638029168 -0.0306001195387820 -0.0330747187510253 -0.0549128370616977 -0.416859697560635 -0.662414199337293 -0.819681045141552 -0.647345086175023 -0.694221586702244 -1.02446169818567 -0.740358896480253 -0.269828177863230 -0.512470163896542 -0.503246542342845 0.0439351543464526 0.460919623734257 -0.0840121231594243 0.0822375351232830 0.159756490591323 -0.109235429886704 -0.477865135593859 -0.209366811424738 0.120793905452657 0.126315747715862 0.376238473539746 -0.0862247736798725 0.794139459813379 0.629486948078737 0.418337036716515 -0.145369456107852 -0.374240074485593 0.00312482379408901 0.0601623890393730 0.00962275553992528 0.252025845265928 0.00464653030291963 0.100051893552338 0.0264130101554404 0.0249497677466386 -0.0863377695560058 -0.0236737155791622 -0.0232051126732206 -0.139997301158034 0.0578519741366377 -0.176760232255122 -0.0596372218799724 -0.328344438173274 -0.100844866079102 -0.174029914644597 0.349917234295863 -0.268941691453565 -0.311340275574528 -0.209640631240928 0.252391816171217 0.168539285402928 0.596035055261590 0.189954352870492 -0.0356342937194063 0.124614893289351 0.0437997344855223 -0.244103904877149 0.355593473519896 0.0285966092852883 0.324642021514713 0.318501753488924 0.514780152976071 -0.166951667657661 0.0651102881065005 -0.387312520605669 -0.365862733406328 -0.0720569082866503 -0.310010194083714 -0.0848283673740330 -0.233034786930239 0.792253282403184 0.207671510315863 0.00684997069554015 0.215455835915567 0.246136072804782 -0.238008977771424 0.253863256381374 -0.661853410135588 -0.943475296817952 -0.569301318502102 -0.203256945363603 -0.538932679873475 0.0680936795915103 0.453928554262859 0.263966715914292 0.371486671361864 -0.256852564127469 -0.302604463410476 -0.804192382086656 -0.500215297961759 -0.773092992753348 -0.289998140673620 0.117663161697904 -0.0159658306959338 -0.682557977074671 -0.185357824767836 0.671832615495642 0.302040749447323 -1.11800945041638 -1.22801663203809 0.0312906020480145 0.380490188961886 0.454045729763625 0.729171456601850 -0.151998275780476 -0.388091796788794 0.450947791714641 0.390367832281913 -0.269652206183771 0.432587540687928 0.230397591806338 0.0309673455747495 -0.304612549958681 -0.127033764656276 -0.210205598449635 -0.377265424653192 -0.513109800313947 -0.216526588671231 -0.167826238392833 0.128477791571457 0.236141406875043 0.260050722390678 -0.0393057834087673 0.0197940674871651 -0.198736398890838 -0.289950140137499 -0.807868134578902 -0.248737830393945 -0.151755747051635 0.251348339554380 -0.974748626701938 0.276083313132208 0.498468305868742 0.0501711504336336 0.440899500925065 0.425013275646075 0.124047800369203 0.0872510792407722 -0.0880442397617279 -0.403345780532573 -0.218131496224785 0.0954102295705011 0.195781419355127 -0.425969120815985 -0.0660758766602178 -0.580565724076953 0.216567141123301 0.103759647564552 0.109560603920725 0.283480311425680 -0.407974936808296 -0.0822030527734836 -0.00435043901832598 -0.391014635221817 -0.231054624482938 0.505256994385374 0.700808934417736 1.00933028168748 -0.842620655909485 0.784009231848272 0.797864154096668 -0.130346491342115 -0.174406308359084 0.286831698069349 -0.166392838369390 -0.0237033420352538 -0.380482482054144 -0.407142848111265 -0.338240846883799 0.337431703843587 -0.0813503389948224 -0.248477712262482 -0.178704413449544 -0.231403486027226 -0.486441620933873 -0.375087531168555 -0.427650666269107 -0.602978679137221 -0.347393189411624 -0.312074003377022 0.218645515855020 -0.0560895301437933 -0.479136130693555 -0.567735320048548 -0.0415514829078835 0.0687895473083610 -0.360150475866241 -0.244147173146400 0.181805750266888 0.249710982251946 0.190091734239205 0.488587984838525 0.312412053360835 -0.278592296315368 -0.0857826868833427 0.0352983924536780 -0.269652046321820 -0.198140525494547 -0.138745792384449 -0.0976787968998553 -0.0803534247988134 -0.138290948278569 -0.251711095329397 -0.186991219924288 -0.153046777481458 -0.282589696853029 -0.297803545316968 -0.0957927628780777 -0.00738005933744000 0.00771273618938911 0.192390973352060 -0.121300496828634 -0.218126131874387 -0.490003715001115 -0.0650211107940437 0.119584768582111 -0.294766432982380 -0.690985781679239 0.0262968159220427 0.0503293046455229 0.320032782282635 0.155954898250640 0.0276872339646659 0.00983576994861939 -0.00849363950541520 0.129007201952691 -0.152966824585819 -0.171881493034552 -0.209576427167254 0.158789746544890 0.00260680390820293 0.245580159322619 -0.276434274183185 0.183976063820081 0.0474784447694460 0.193249699364354 0.387620737733534 0.128465640008197 -0.0751138197284340 0.311629624380164 -0.398621368765546 -0.0502881364522649 -0.147047852472521 -0.251811982188479 0.574341438367907 0.834919262615219 0.117913361043972 0.204416518245291 0.423542934264941 -0.382057410732805 0.0994602257630090 -0.396091848600270 -0.370742630551785 -0.177020473006137 -0.821286592449497 -0.571225467372102 -0.269936864334001 -0.172698807213177 -0.102882471825976 0.0451297478920186 -0.471471792796775 -0.791750027467194 -0.514021340967771 -0.411114338410847 -0.356777673848097 0.0523775173388755 0.0888189177740201 -0.112722207496639 -0.257242582738185 -0.216973510195528 -0.525814206200307 -0.0857531617531972 -0.200647827154459 -0.216024877108117 0.246686646296297 0.536146229907136 0.273174548531295 0.141720454218865 -0.817593097769190 -0.166015928696859 -0.0630637954056170 -0.00124222416359657 0.327525917773808 0.421277068193888 -0.0590332325760689 0.109276372049067 0.00140093376284587 -0.277969379582586 0.0322066629660268 -0.0185537536704555 -0.00463466373377047 0.113097044170106 0.361159926545462 -0.0236112721676095 -0.0117471881694002 0.305971030494375 -0.00362687198369101 0.0660274113017753 0.160844619466778 0.285597207651428 0.219856215957463 0.244033394924683 0.167292987000970 -0.356997541719227 -0.901266812992303 0.186685074237551 -0.0808932469217884 -0.387873049765944 -0.145406434320900 0.309077526685500 0.257200823706312 -0.145931902832027 0.157246704692959 -0.00217299929098460 -0.251029061142906 -0.0940425006891964 -0.303553987483314 0.00487195716010031 -0.133681627582326 0.0230508723469460 -0.239963778302855 0.352040741503544 -0.265270627751217 -0.293768416964664 0.145992026634670 -0.412858825533283 -0.379114921282311 0.169594807286333 -0.220221212761819 -0.430435303124400 -0.564823408923982 -1.48541636354932 0.0570966818925008 -0.508925055613203 -0.173666295163441 -0.527787971071337 0.239120859699788 -0.142171129481970 -0.161675362747224 -0.0415799098159852 -0.0618273998841737 -0.100564759415269 0.333734801924928 0.0741347337862599 0.307691654006817 0.0388350032584252 0.0303709752819596 -0.100285217794228 0.0385551559266334 -0.274452389750081 -0.187887987901479 -0.481263139392882 -0.558025581576090 -0.0478071335364037 0.238322616678044 0.0700409752448379 0.00489913818498807 -0.0363009789601346 -0.0196972895983652 0.268114227035280 0.138866705797663 -0.243983312206879 -0.447046803416471 -0.553931298007620 -0.547806009242191 -0.107180039271932 0.0529805005263955 -0.0116698490940169 0.150802905836842 0.256943470261512 0.503567282631612 0.453412547043702 0.364981660654935 0.590084523726070 0.621528815945752 0.305171616290359 0.369275078097522 0.395995574459906 0.166250720020598 0.284100758975295 -0.0213739359602815 -0.233496305890165 0.0259452230356686 -0.0876220992942533 0.0689875657177486 0.0344194687451982 0.151798982569245 0.506232548663791 0.149423305757696 -0.174290947366782 -0.266232443979066 -0.388397855344805 -0.0790574099427887 -0.0432294604996547 -0.182676952229845 -0.270648697795582 -0.581968463515631 -0.454839647465213 -0.314582990962570 -0.212243574053279 0.0688040172396809 0.271807223186920 0.281538275548674 0.365299465893456 0.512880408474947 0.202623097617139 0.227271692785835 0.0857457338355102 0.00252751883058881 0.00712739075169222 -0.179963934724126 -0.0512312497771111 0.170585252087353 -0.0635482377209110 0.0750105023923073 0.0964956471714346 -0.293837999010543 -0.429770763290007 -0.825609105442186 1.16596903072125 -0.350908783119320 -0.589100328330132 0.202754954505593 -0.0217279638358970 0.00141783937382978 -0.578002420705918 -0.796693752630632 -0.283584923161220 -0.00114539418582974 -0.415619128678755 -0.421044583380136 -0.191091851259871 -0.608161490973244 -0.0854213985149370 -0.213971071544140 -0.247016289382806 -0.403374922021216 -0.324262372903995 -0.0873766893817518 -0.134441733792075 -0.352526136055956 0.00857220365211686 -0.279129544744392 -0.867325537857032 -0.878796153084491 -0.592976127083678 -0.524402912954702 -0.766014258896791 -0.0948419970518078 0.270484911877530 -0.0241530427036164 0.293606730165315 