-0.114026899459038 -0.241855267849127 -0.237283863585257 -0.0599211788201371 0.143366742558035 -0.0998714027162571 -0.00434356904337732 -0.212526323778340 0.0591074626321548 0.0864526330185597 -0.0995349463171883 -0.0515820884673410 -0.0379161643500711 -0.0489172602170034 0.186537433224247 -0.0582659567012467 -0.168646355619858 -0.0819565350625632 0.0600501191379365 -0.177123630478493 -0.0300174678692968 -0.193640889146167 -0.177858139204260 0.0514323159925368 -0.0764555636843920 -0.203813880617366 0.0772072135287451 -0.230909611428426 -0.173754209703350 0.0758074713293400 -0.318390049940857 -0.155627665773953 -0.0330383881255883 -0.347372695055337 -0.181901855047933 -0.234591557889616 0.0144971239409228 -0.199681619732751 -0.152044194785306 -0.245790681062564 -0.295151518517769 0.115038550209788 0.156604219211066 -0.115435879989752 -0.0616711969399102 0.0189049328493138 -0.0574677396723441 -0.221881774185808 -0.0375579239823058 -0.0958385495649992 -0.0170534253825918 -0.0598469433775079 -0.0888405700729486 -0.201410012119910 -0.198591262573007 -0.221041063742859 -0.258051933581761 -0.0243380904559981 -0.238202189459629 0.145384042549564 -0.227677160705550 -0.0231916808369427 -0.196392271242867 -0.131137076151393 -0.208382758235599 -0.0334549240524047 -0.0926909923974356 -0.323648579985362 0.0102542372264314 -0.0417169370256610 -0.126413535136253 -0.147197026719645 -0.205719899280228 -0.0443513928726589 -0.0593625438231962 -0.190175083615322 -0.130748191935689 -0.0637580700292653 -0.0173244792771404 -0.130104063946074 0.0252050699393948 -0.0730829066756101 -0.260762525312225 -0.0970001825799878 -0.311609113041852 -0.148281395838400 -0.0931568244202312 -0.238509293906508 -0.111402880963821 -0.269468723102046 -0.0899142152198651 -0.0259005927479165 -0.0530482468496435 -0.0794778773697851 0.0350022208591803 -0.378996185243210 -0.274206077784931 -0.273383327486785 -0.116559044883952 -0.301083968235034 -0.170187862416795 0.0440508977033083 -0.242080501355036 -0.214631183294395 0.0599550918904806 -0.159280287085080 -0.266547516726506 0.0522140427366191 -0.0238152284257405 -0.113235875920966 -0.0205026805350926 -0.152518118410211 -0.128265058591352 -0.107061134640669 -0.0184516886923775 -0.162741413922816 -0.118853748561335 -0.0162922328483192 -0.261757126924486 -0.125322818492093 -0.132900124725039 -0.111456769255323 -0.169633758918097 -0.0956731175898336 -0.222395854457286 -0.0154538783989802 -0.0971244076363439 -0.0593617343541317 -0.0720913802597961 -0.230548945444243 -0.122040043764862 0.0886120601716411 -0.0575293590714111 -0.161511071157639 -0.278236163298322 -0.285312701682044 -0.267553532697297 -0.0480500448461169 -0.169040929793852 -0.120016818279431 -0.141248199674448 -0.137900829615456 -0.232427191868033 -0.191312765833610 -0.0173403984245923 -0.0523894772414548 -0.0250453630621400 -0.137195230322794 -0.127215747046225 -0.178055820357988 -0.357837233736439 -0.357568614833111 -0.202062698476973 -0.160508861963954 0.0702071307954572 -0.368870438832570 -0.0441184176115578 0.121636491098490 -0.397486370318650 1.08243967306983 -0.217140381664486 -0.546366066221646 -0.360497272776175 0.212185577788025 0.353121477177181 -0.217396068478223 0.140943533134936 -0.688831558724935 -0.174053205243537 -0.485083749694144 0.147886198883895 -0.450736615295930 -1.65785387950417 0.104844719631957 -0.0947705855302086 0.142349751550162 0.323580396011630 -0.209690724353540 -0.215772249776724 0.000848919655650567 -0.253515529555138 -0.752657050582466 0.0691450823871605 -0.267679636682627 -0.159420375757096 0.184412295044640 -0.457496651077852 0.328930188535080 -0.109779738666319 -0.249044962461441 -0.184349766169716 0.0977033246938206 -0.865317188190790 -0.426478504047974 0.315969394498368 -0.0142181993970853 0.470173701909176 0.108928903762437 0.279512366005481 -0.723953938712628 -0.842146317872751 -0.291663078998188 -0.298596387480095 -0.397814029508040 0.306092950517187 -0.199537320501900 -0.542779210432008 -0.702889358331017 0.0717550699903177 0.228357679479310 -0.0640771410874311 -0.449220114252787 -0.715237327512054 0.288537976687382 0.0184285301451217 -0.684704429206118 0.284085222938622 -0.351579780071260 0.217908508274205 0.258970053568465 -0.0924385653108393 0.621233057962949 -0.567312124058187 -0.222677400363334 -0.0779512304691953 -0.568278947399226 -0.0563220133743075 -0.302223974234945 -0.139175210737625 -0.923963961308408 0.629339182672899 0.339733847214840 -0.846609540063580 -0.0143856608685195 -0.290672107372912 -0.697638909497755 0.0848455358372453 -0.705042590867983 -0.358771704464460 -0.140737090311924 -0.479967032468176 0.433389437355953 -0.426240432593979 -1.00090499736389 -0.288956874742950 -0.585786194464951 -0.413554943981944 -0.272569419714965 -1.40508029468493 -0.732554225552145 0.378538694617154 -0.0334279216627018 -0.298207187989297 -0.625786294834362 0.192715090579521 -0.0759600973946904 -0.384139375605001 -0.277421472359181 0.712329790989131 -0.435104598293248 -0.0500875365118957 -0.462708732646122 -0.400333736660476 -0.370807906095431 -0.765963718951163 -0.392309623110954 -0.495786328780357 -0.178841926293586 0.428520158774566 -0.656114218843847 -0.469951790242815 -0.273440035262956 0.325301173156172 -0.0325199583647745 0.0286134823590786 -0.265776803533297 0.273044083221510 -0.749907691181649 -0.113577846084872 0.230264467478740 -0.564110881728868 -0.0347630345356952 -0.162520215142041 -0.293136383757607 -1.09124545648300 -1.03224910940314 0.0387876280833545 0.0533091272036634 -0.161429900050317 -0.462206838366909 -0.174884387848577 -0.155064827736026 -1.30767891369547 -0.562323000992841 0.0412181602007663 -0.612774162136072 0.0275340402730452 -0.490314861401919 -0.418483709435943 -0.484399279111133 0.0122751643271668 -0.0853941655450991 0.544448658972697 0.128627466226064 0.444882686985210 0.277621988469951 0.522142463265295 -0.205310501808837 0.850070392615069 0.917273127218869 0.361517504491676 0.165358109093741 0.445703179288643 1.01086222166348 0.135448090757287 -0.136635645367259 0.705881913129337 0.819376662023752 0.205406383965414 0.440309764095323 0.533701043282635 -0.200014444041247 -0.321748947456326 0.680204858134452 0.195002816716149 0.474423834642221 0.615435225194018 0.0197325439739299 0.574194758523586 0.623539262974779 -0.215888872461671 -0.114235503068182 0.371390790457195 0.227137116980458 -0.0380725890764170 0.585668987707422 -0.240204830070204 0.503731504993414 0.117386532484080 0.00614002792447919 0.244749317751272 0.326210170597901 0.651851248702377 0.0583826322408400 0.0733467646365629 0.340639201059858 0.467830104254375 0.617975674596708 0.330961296893724 0.251501777933765 1.07014509459336 0.0626142220959536 0.266911625779442 -0.389295014650841 0.671160843054696 0.382360250895981 0.514766974634706 0.0321327592169956 0.227578717266103 0.652919826257802 0.145437408219661 0.143866620285100 -0.427553503307632 -0.0194669125047359 0.469621783406984 0.480858066725105 0.246915343998847 -0.00181972508170272 0.755910855820778 0.872058594925236 0.134476113985255 -0.0237957952761912 0.625910384663439 0.655592746763775 0.142765785151895 0.346806071418098 0.720367099888022 0.355309948385721 0.295010052174562 0.485764026861795 0.640398607740036 0.0437747026778220 -0.363905459909816 0.466405078223652 0.120316953758831 -0.0365153323575908 0.672104608595625 -0.0337531849265411 0.228021992203233 0.311909738881488 0.224249774978491 0.732568593472189 -0.140015324877848 -0.384599059147173 0.779976321090993 -0.388178838166396 0.295406976140761 -0.114555821026300 -0.239378983418105 -0.392122428678723 0.594609828430163 0.469421955501355 0.360471631731251 -0.173504354041882 0.346294941037139 0.627656649390796 0.187979389423833 0.0743808923013684 0.547437406712723 -0.134871507300563 0.499630376522648 0.662116993876468 0.168398370735073 0.500758812071346 0.0879287424107387 0.336883049007880 0.263241515774905 0.0826488933026110 0.181487354889599 -0.216535556260220 -0.0292559406505767 0.0285725380408397 0.230002845231881 0.250397701818527 0.181998265302863 0.420825208548330 0.431721842961634 0.444337183797388 0.521612779425981 -0.130455797330153 -0.246374831856616 0.403845118964557 0.193998615028155 0.277157217899130 0.143218940053842 -0.412200926358709 0.312722470392068 0.413050821521353 0.356475526797609 0.637920992384796 0.0913051527128852 0.124094747471904 -0.458493979559294 -0.391071735453801 0.666986772463000 0.328767883610123 0.643658729422274 0.369413519824988 -0.539124492226377 0.0219452009416738 -0.0302938751476650 -0.133919813875995 -0.0781436543947979 -0.131944746731867 0.283319586328481 -0.205743618222858 -0.111671328892947 -0.201914939194504 -0.0934870700257484 0.133826086405970 0.0950071206823156 -0.148254202387995 0.00957083565567512 -0.0896799037674698 -0.0311715109310750 -0.134410023707076 -0.0290822478840603 0.0722046724754780 -0.150394703106285 0.0534456542237864 0.0888790214709475 -0.155429338117603 -0.0765274585307727 0.163957413067665 0.0265949501264413 -0.0235723133456757 -0.110713939756290 -0.165233609654614 0.292639391395209 -0.0714552487840417 -0.0858486582643032 -0.0237890501173298 0.0520391949229804 -0.0114894614119132 -0.0234946256776861 -0.00591281119977206 -0.298470128869011 -0.0574700471170184 -0.177941348055872 -0.0832367088587858 -0.0659674065429908 -0.0297079943004733 -0.0375794127859476 -0.00815756998309451 0.0554263385802822 -0.103632777596214 0.129971622944406 0.00876882286472021 0.187460334610971 -0.119482620641835 -0.144562749055288 -0.156775884827499 -0.0620410016676167 -0.0488886620098973 0.0479340992265599 0.0498950752575813 -0.0791971957337248 -0.0189783011730924 -0.0843112736472876 0.116946309005752 0.0653678043338027 -0.0675789985580003 0.0667104338710542 0.126216303874127 -0.0271238540230157 0.0945011755127238 -0.137134159017063 0.0521228781687556 -0.134400003087113 0.229496278439007 -0.168102163300680 0.143276803404280 -0.163751583712999 -0.0111441881030231 0.242275389170970 -0.225306753031308 0.185596016097413 0.0670717201675832 0.0419366033802594 -0.139490484931338 0.0350564862411582 0.0273000162604770 -0.265923336580204 -0.182540423286872 0.0803339081968603 -0.261752233138538 -0.137304934856564 -0.229816760715428 0.0504834994094683 -0.0517439274474357 0.0560582851394189 -0.0680660484019849 -0.225766734851125 -0.123990114205490 -0.0368210491177685 0.0985577777893366 -0.308418152912350 -0.0820714261671620 -0.113286718417589 0.0638223148936833 0.0370652201449587 0.0342229813524584 -0.0144320555281359 -0.00172610272466923 0.0905166955063542 -0.120996399047806 0.0849854632029783 -0.0647826912797204 0.0742252486162033 -0.0626003750874150 0.0874432237643213 -0.0675508897499340 -0.265004489163131 0.000188452541168761 0.0259350903689567 0.0595831147993048 -0.242071188015950 -0.116302882610557 0.268775829435635 -0.237689682463720 -0.159621399785511 -0.231054437136284 -0.151612612217473 -0.128897561738300 -0.101199564386991 -0.234773500834265 -0.120104893091679 -0.120556267351617 -0.100423935559191 0.0181527967629339 -0.0706054147923379 0.161670430755338 -0.264793581970673 -0.186431296890013 -0.121341460650923 -0.230748550437262 0.0940696840310378 -0.162607663688355 -0.146740646181009 -0.0493757353008980 0.0536849678474193 -0.163031695138349 -0.100330530226514 -0.125535158341176 0.0359569559656644 -0.0700323138443740 0.00197238607542089 -0.276323584740096 -0.276157538626000 -0.127245748024591 -0.0182806233823297 -0.190193277638727 0.0144907382720237 -0.0991334192777624 0.0786543645947073 -0.131613561872576 -0.0804690471632613 -0.221493978748548 0.151809449801349 0.0157824199413031 -0.0568962450036864 -0.0538959315697360 -0.0333490005749161 -0.0487088547353717 -0.143544465041609 0.0634021089438386 -0.0685739670390568 0.0337010492527818 0.0127818231578630 0.0102188288606000 -0.0395564653805187 -0.0928431209936771 -0.0679381239612449 -0.0925625572554409 -0.117624787688092 -0.394635486099268 -0.0745778180264390 -0.0437936754763016 0.0126795013211982 -0.0381396880915704 -0.219371181284802 -0.169226207707424 -0.316946888484725 -0.105457321559293 -0.158095050881578 0.0291035824044272 -0.229236521193154 -0.0324457771933731 0.0148465165233943 -0.0321713752251804 -0.132487257323839 -0.184440272802371 -0.161540351519349 -0.297224164731391 -0.254661294396411 -0.0183701643721094 -0.138533427510731 -0.101133471964438 0.291723310473218 -0.0754876301011981 -0.282080820427245 -0.0187996385808704 -0.207947944351614 -0.284724578576796 0.209045210032429 -0.0319158338636512 0.0176289998578179 -0.0521902211816735 -0.152346813800118 0.109755600506674 -0.113060592403363 -0.101866912042644 -0.353076156238451 -0.0962963861147023 -0.00171026522310804 -0.144344263650229 -0.0646743422368337 -0.227460108894427 -0.218094699729371 -0.0603071823876167 -0.135978402535692 -0.0548900241828222 -0.0612462874242207 -0.0950265928811768 -0.223893908261306 -0.0176595964656146 0.00760911659661300 -0.0209708057758630 -0.0989254520268279 0.00330971739105565 0.144361151258340 -0.204932061795410 -0.0584061895765594 -0.164242468294187 -0.162242094076225 -0.0248060185949642 -0.185115291371965 -0.228670350582875 -0.293031352540593 0.141798566517484 -0.00604420683615747 0.228550634673351 -0.179597578771548 -0.145260625617191 -0.0339788292082727 -0.116018241549737 -0.0479307069715876 -0.270458357399052 -0.0748691154712022 -0.305598757793427 -0.168894430569243 0.0521406762637597 -0.364261833072705 0.116250140487450 -0.189121014793967 -0.121058124892235 -0.00246740471225574 -0.0898400822340619 -0.0360369647953214 -0.147695969892658 0.0663610886912893 0.0104425439659497 -0.106362489584289 -0.272191772053124 -0.193770509483338 0.0917195687629147 -0.107786078463933 -0.0265027415634599 -0.0649132118787043 -0.138279870020469 -0.103547713134960 0.00272879817033571 0.0829292025057246 0.0481304921511490 -0.168029456559099 -0.0598634646492452 0.0319807571918167 -0.0238860776045376 -0.0330522206777260 0.0241942968343412 -0.0518257259855914 -0.126440177845551 -0.0224392326849485 -0.264226607781505 -0.103838064875151 0.0814091473897210 -0.0636687847315144 -0.185688102097768 -0.131753884750503 0.0802703988739320 0.172792380645502 -0.0773379247001034 -0.153512804991915 -0.183165708509192 -0.139068647895332 0.0261708774064009 0.208078812881923 -0.0861341265847313 -0.380842888736963 -0.109243997668186 -0.295740062944077 -0.243294650767427 0.254808675474406 -0.257509258158762 0.664369536241495 0.526123489962586 0.214880047549875 0.0935954046618041 0.413888045548549 0.364015685269051 0.316784239015691 0.0948256373844539 0.102861838294765 0.200833199822334 0.430387645977712 -0.355922371551084 0.369610701187031 -0.173886946693930 0.0783636391284666 0.156839434252314 -0.125972381656251 -0.354549314569437 -0.781611597366923 0.181955844320480 -0.265599374014534 0.275453592042835 0.557099733358848 -0.0478311391191530 0.225212103943828 0.415094264974476 0.0535961883955226 0.0926811232235638 0.396840145040564 0.101160196266912 0.140311679298397 0.256182748008793 -0.261900828258048 0.351057767285431 0.134269148590927 -0.409520283009093 -0.406358410015778 0.516827083997156 0.553548387427592 -0.518213720547181 0.119381722898096 0.0438979084640880 -0.0222710366062066 -0.183910623449320 0.600373210026202 0.0861450106098747 0.414504475555263 -0.332969658188603 0.208287257885373 -0.0725523763911668 0.0749388750137467 0.226383779279293 0.194223559128043 0.226477355573577 0.257611025052248 0.833925773671464 0.413036787625495 0.343552407199435 -0.441101541454217 0.234033940500638 0.139668305702105 0.198893191759304 0.339167811130501 0.0403790371545871 0.665262266869914 0.488627554658860 -0.260313227053856 0.209479941212107 0.115380380984065 -0.208165511754372 0.370339742198210 0.111632276912616 0.460310330909752 -0.173540851619748 -0.332007956628488 0.119767727220773 0.336195530892729 -0.00629472508151788 -0.234375200359861 0.336632835701554 -0.0998265336262727 -0.502438140854083 0.181834950859104 -0.174811343656606 0.112567623975724 -0.163666382461213 -0.175528280668018 0.406717266512198 -0.160666487626439 -0.413479530476499 0.465981876269832 -0.174231329939835 0.0975862685309579 -0.390397283505554 -0.564699149190133 -0.456679416082830 0.107179438249120 0.0990256675540682 0.159017541988459 -0.642113571636799 0.628128176983545 0.413189641895279 -0.109070313212090 0.0332225731776447 0.193564334602479 -0.516737115085402 -0.295430996198615 -0.115208185892033 0.248431687483413 -0.0418471526847121 -0.0426291767018409 -0.227130372350143 0.0919932481002801 0.314928703399292 -0.0786617238245880 -0.147156598520138 -0.174861765126663 -0.535027303531961 -0.0297228414840478 -0.372405814431396 -0.415359669008907 0.203454156269072 -0.208149444188173 0.257173237576508 0.0693765710025663 -0.456821160275777 -0.0633733727144795 0.487510076350744 0.596057626899256 -0.200465269411694 -0.115186502885602 -0.468996827863816 -0.351648045827684 -0.126179042715048 -0.334533369939369 0.394374549207041 0.262996571565572 0.150163133365123 -0.391238068570625 -0.435287957067869 0.0950727068324928 -0.412320701513772 0.676238993660870 0.0509169906565929 -0.648775607059753 -0.148964221499009 0.0305595621420206 -0.110009694356314 -0.0504902811300436 -0.269770769356219 0.0990384625806725 -0.146093948179837 0.00624392520853738 0.000593957108266134 0.221137503589361 0.223800434069125 -0.113728097413420 -0.0136239429238061 -0.109603449782018 0.134961280491440 0.195904999362854 0.0379268498562380 0.103050045945540 0.150029072708736 -0.0842733730650222 -0.0938402575223549 0.0995408830092147 -0.112480974753170 -0.484808671065077 0.224706149940124 -0.205147018308652 -0.154203837343859 0.234326105098963 -0.278742923774911 -0.150904236720905 -0.128318819388408 -0.217291624849443 -0.272679273246545 0.137178280097887 -0.125865809868696 0.229450621400214 0.111715094412925 -0.0295575284273515 -0.0145504906666021 -0.172570839713733 -0.160734053408874 -0.132122725980286 0.00313457123695584 0.118182490950227 -0.117550902298889 0.118816255654178 0.0613699264619766 0.295437879504820 -0.127252092640560 0.0708583532415383 -0.217488897993176 -0.222099604499331 0.104836767804121 -0.0691509378658697 -0.176282461451230 0.131481844809636 0.0191274567660591 -0.460920330260480 -0.147925581557385 -0.0356937794996672 0.146827258022587 0.0694416530962256 -0.434452638836354 -0.197064136378078 -0.182255865775801 -0.0924118337120117 -0.0575076217477622 -0.0944666395294119 -0.103308268022022 -0.149562691426847 0.224043519651550 -0.183027584667405 0.169636627426204 -0.217810265384072 -0.109209461244931 -0.0754965940625582 -0.223200614065681 0.137885227292020 -0.325993365611845 0.143862166630552 -0.0781866007999684 0.243911033177985 -0.134258639926966 -0.122507910894221 -0.121485103489556 -0.283986522568381 -0.260291490075981 -0.0703418071355084 -0.204970420930405 -0.168768093287648 -0.149363602304005 -0.104873466844312 -0.0591748111774182 0.0475389057447366 -0.262451011471287 0.0970145377240561 -0.201677570784034 0.158163633426187 -0.101616364434497 -0.0630321894656760 -0.0789653740503091 -0.0591396106996556 0.156452148732224 -0.198089545721493 -0.0147254835451007 -0.107516739542085 -0.185498622445308 0.481840603925593 0.0883043812065992 0.237456241645877 -0.158994578481657 -0.0195801790117911 -0.229477461197289 -0.0505168799089985 -0.166080486073267 -0.220858839363428 0.119451753052571 -0.164075094882664 -0.229650722710750 -0.133416822839609 -0.134038569635876 -0.0606583814681050 -0.0437849508748979 -0.0842123084513779 0.161066030886193 -0.0648474241649053 -0.131722271552522 -0.212380060092189 -0.284345954537673 -0.00505715278902257 -0.0319142042342022 -0.0209634544603479 0.276608718043642 -0.0340933132733865 -0.356025726406879 0.0977604730763496 -0.151443515387824 0.0144685870508663 0.129782071635580 -0.121678448051336 -0.0628123889915529 -0.0140085040126886 -0.145001782268044 -0.0981535012102413 -0.0408804683405971 -0.172125291225692 0.126690654674097 0.178589377600707 -0.0849821368868667 -0.296910844036192 -0.125975696690675 -0.281735747314739 0.0738081091553784 -0.287347349954552 -0.110764096413938 -0.0639728122512186 -0.0659078062510094 0.159996574689977 -0.249589182244521 -0.0343085646017046 -0.0995174514020623 -0.153505191231464 -0.0298762650668322 -0.204562623633517 0.111101402932386 -0.156282973236948 -0.0654538966536976 -0.0268374651152037 0.0129523077047272 -0.0143910470722674 -0.212142398270380 -0.136104301744974 -0.168684736621997 -0.152490103209361 0.189227178591273 -0.0903155200495190 -0.241920677116472 -0.0194587187830252 -0.147760100950294 -0.196807385301444 0.134542422664430 -0.375104540047601 0.0519473925333313 0.0168137562891601 -0.0698445613762916 -0.0968324566072442 -0.121736780691078 -0.0235919932738095 -0.196897656277723 -0.245124953852773 -0.0921983078259757 -0.000622057897663905 0.0884274785270958 0.152101619143628 -0.253444642592351 -0.0407743798293506 -0.0666364466537394 0.0598725031317444 -0.195632213151947 -0.255407131619262 -0.321066554975592 0.0184128700766212 -0.400076609007479 -0.199554624287258 -0.111260690879426 0.0885821555929877 -0.140664966862400 -0.0632562402320444 -0.196332435790075 -0.0442487365314585 0.190074144881589 0.107923572285311 -0.179563910204588 -0.153813630245095 -0.210016913398978 -0.156234434116737 -0.195991209835351 -0.119650226362645 -0.0873152473728183 -0.117186994326551 0.213988673676331 -0.0220648215475967 -0.0994079265106998 -0.265080431779778 0.0582381696736161 0.0133848586865204 -0.0984582358734492 0.0131972419337452 -0.149183151280192 -0.227455891923302 -0.278632197101130 -0.122758947701483 -0.170278846036697 -0.149096880947908 -0.127995239360737 -0.152782773528419 -0.244098790752448 0.0663833836687331 -0.0594335843959542 -0.111358152933603 -0.115292479099482 -0.259775302443826 0.153168943121836 -0.199657763982582 -0.238598311267089 0.154050444022663 0.0559382057761831 -0.192315162383489 -0.239284608242211 -0.209777297148317 -0.224504492751459 0.113476506895281 0.152561921772858 -0.116273822169475 -0.0107723988072440 0.0589354527912908 -0.102608785725075 -0.0380008925991915 -0.0311282154200846 -0.0109877116344768 -0.229737712476251 -0.181861630133390 -0.236934248863785 0.000511937961745861 -0.341600270825791 -0.0923829889261120 -0.00221793593618576 0.219878964406486 -0.0469638854582820 -0.254159078098298 -0.315866052698919 -0.255159179337758 -0.189913012043810 -0.150175165008558 -0.0531401891509679 -0.240345577788974 0.0102996649622272 -0.249807028949323 -0.0266014192925852 -0.0261923293783735 -0.0959370069103349 -0.169324787919467 -0.115066712785968 0.0555560764464720 -0.277951809984239 -0.237229692024096 -0.206588238515368 -0.179920140156082 -0.0419557830382493 -0.0143038483775137 0.107462669855157 -0.0310634308360303 0.0136738267617319 -0.191089020111029 -0.0917177948087255 -0.149843206919713 -0.179142005941809 0.115700704587365 -0.100585704354103 -0.218099477706581 -0.0682731226483904 -0.0729904457964016 0.0579244311773347 -0.238205510678633 -0.268442560831645 0.224946324624934 -0.0894625908104091 -0.0203681334405596 -0.0529541872481023 0.0891103044646449 0.113541677364469 -0.125373739090380 -0.167261959903761 -0.0366180698642025 -0.0482746250800539 0.145283778737160 -0.212063607522294 -0.0693541403429971 0.0952414746352311 -0.0754616737012681 0.134555552860055 0.0411764984260306 -0.297938555737278 0.100766163946057 0.0747121789086057 -0.00518833256991408 0.209501377772430 -0.109557388438089 -0.169519509158277 0.136713275915047 0.00796159753806315 -0.355555134917604 -0.0364402440451956 -0.198582419236539 -0.0591708016877400 -0.340879398610766 0.183527979016488 -0.0765682960109360 -0.0624111943495083 0.0552978445254616 -0.0738126921518646 -0.139139945839680 0.0135469661401547 0.102193244902427 -0.396877017675812 -0.0316301851978147 -0.0392661232645079 -0.00297056027612172 -0.0253468024037584 -0.0451389921671101 -0.310414495417746 -0.155190373226526 -0.341350492864918 -0.108535357662324 -0.126465059865291 -0.0632231990007958 -0.0399525222460838 -0.0932930554114358 -0.0948551981860093 0.00488690771526261 -0.0196150068023661 0.0246974861121602 -0.0168139734368726 -0.551111046200037 0.0995052169568732 -0.0668690082764580 -0.214674373470393 -0.129747238883694 -0.119489528260905 -0.199098882542675 0.0304922273225966 -0.276187133077485 -0.323591186079347 -0.0355518556133591 -0.111126567268150 -0.0651699709315562 -0.260197587581722 0.136368097343134 -0.0148495622079073 -0.147706404361881 -0.232112433259620 0.241312220376321 -0.123335349312651 -0.382838043737495 -0.155506350427903 -0.100364856131680 -0.330187400890165 -0.175457047737469 -0.149879819477605 0.00419160979924964 -0.193279731911812 -0.316991776652121 0.136260089573040 -0.229209732566834 -0.195462398896859 -0.215062545063078 -0.307365929881092 -0.193428829544341 -0.214834489401211 -0.250074348412042 -0.0757597971501528 0.0765243334873595 0.0406564517219385 -0.104041446389314 0.0385082484154468 0.0890977094911327 0.0121172914099091 0.253749174851617 0.236247211128479 0.0968955077567305 -0.0191065959004014 -0.0643611975970960 -0.208844038155004 -0.104977705491657 -0.194844972134889 -0.205322240498873 0.0238479310375218 -0.383021467304587 0.114796780917447 -0.0883218176380514 -0.211039279697127 -0.354824508482117 -0.104620179333533 -0.00674055964707092 -0.138030442630701 -0.0721770499397002 -0.148946666080755 -0.246105854336308 -0.0269939136305023 -0.0309231362529431 -0.308704601433818 -0.181845520055860 0.232448689628749 -0.0493074409037169 -0.273000361705769 -0.147305197936790 -0.284236624885820 -0.0360938922103676 -0.0848120592657057 -0.467578040506196 -0.0134527986053859 -0.255773789592014 0.0169556908513505 -0.0982301700793593 -0.144919776006770 -0.0298919223085188 -0.0759268999251728 0.143127092846787 -0.116063384148500 -0.402742700364717 -0.234287235692623 0.0384732067664062 0.0149567400768978 -0.0197177884223913 0.0775240925119962 0.212532790512810 -0.145345266423379 -0.00354526175058823 -0.00473384591265578 0.160544407445168 0.105913325954059 -0.0346257423150096 -0.0666044671726251 0.0356621372905414 -0.00134905102507627 -0.0274293454521529 -0.168673293820921 0.0924071449987508 0.305192565733699 0.0916758535646941 0.170703862917381 -0.106761364102758 -0.0886370804256249 -0.0297974901510499 -0.0706040122655420 -0.0234296348522228 0.0632476747311141 -0.227390426991193 -0.0743534306565426 0.00837945219978068 -0.0400914640950065 -0.0639365305639749 -0.0448471813033736 0.0761508687990668 -0.119953559854071 -0.233196771021104 0.116176386781821 -0.340709484651278 0.0210897695726751 0.137025463608848 -0.224283270200392 -0.161935376507261 -0.103554142980193 -0.152730432221158 -0.185191844244048 -0.108944480853590 -0.0620832267146048 -0.113604236265459 -0.0707294340047802 0.0455660092584414 -0.153833929712491 0.0798104978612336 -0.180242954385875 0.138657987834980 -0.0577027541837821 0.00394137928284978 0.202456552087197 0.0403524382491125 -0.148413244059601 -0.0159442187593771 0.169918583844507 -0.0372085046314798 -0.137247822360786 -0.278027921200581 0.0930824120582269 -0.0180949997673100 -0.241993348104573 0.0841628763710414 -0.103300969218188 -0.0406271141267586 -0.0408937467512891 0.0585760513733339 -0.0470934376987443 0.0418115741777191 0.00243839514992676 0.147771489751764 0.0559558952300103 -0.0626309441412159 0.0506153000996948 -0.0997221336383212 0.0643753533915000 0.103896144318429 0.0121034912523086 -0.199398846004823 -0.0893201061389420 0.0388869984403160 -0.0445917203759059 -0.106618089836948 -0.246870119862332 0.154060002241524 -0.196457483955446 -0.209628930917871 -9.62528704725811e-07 -0.268617599374264 -0.204956058406395 -0.0815176031326803 -0.0727242038472796 -0.344482812838780 -0.134263891629176 -0.256005799110301 -0.180369610363810 0.101956188141098 -0.0226984863515930 0.0232273640177671 -0.127056181816907 0.121452792029749 -0.0486883193872052 -0.0891433426438581 0.175568757046084 0.00907505174460840 -0.0603849951567257 -0.196911385834692 -0.0433217821633587 0.0856661141575590 0.0691079266386660 -0.113955337758571 -0.123172151277822 -0.206751000924504 -0.117550873808008 -0.135176750803089 -0.243896231201144 -0.0908877862734023 -0.112937919854839 0.0877040124386179 -0.179788610618026 0.105453380308933 -0.128334190779131 -0.339743823173179 -0.144247925093214 0.126874433706557 -0.202997937336815 -0.334805815630281 0.185104824935704 0.173109096731867 -0.161145991384590 -0.364559996502812 -0.136076541508660 -0.257439701278401 -0.132740060242394 -0.181877975203396 0.0455337191741662 0.184094209199153 -0.0746145189767772 -0.124169756904363 -0.269130329849486 -0.0317261873611415 -0.162557781710041 0.242335493955170 -0.182199170634329 -0.354137486542424 -0.205299105131583 -0.0614975299711844 -0.242901870763485 -0.00124479292157379 -0.152962656925904 -0.0248056278020527 -0.238963940949479 -0.0696158003511149 -0.102066383782269 0.102307460608561 0.112835694260729 -0.141486998178084 -0.0867269482836195 -0.0155489543643921 -0.0696281361613572 0.0138097944784550 -0.0869122395324056 -0.00657977987827604 0.161516208684286 -0.123873214271676 -0.101259182325587 -0.124346700131319 -0.146618941557170 0.113293258114065 0.137863680156654 0.0286331914627568 0.0559904096207721 -0.0493085403543796 -0.220634784015335 0.0589643568043185 -0.115025248993026 -0.142472005156185 -0.203102001083523 -0.150943815989021 -0.0832540611570264 -0.0642546367672413 0.123098846699539 -0.260204565578109 -0.0280447659873975 -0.118919341030320 -0.172928894873509 -0.0655988809706174 -0.0996264351809969 -0.0396590159726607 -0.254391282103975 -0.179241032135138 0.0522002991305543 0.160102396910087 0.0583403371128887 0.0589916752234899 -0.185931014061641 -0.271493981706537 -0.0965101850670138 -0.161453169276671 -0.284233137448549 0.136007321718963 0.220804200722158 -0.163560643541405 -0.232594436529324 -0.203115093374412 -0.0650566058263133 -0.0697340850397027 -0.235230761813654 -0.245880376899428 -0.100125978298201 -0.0299139849049109 -0.209655288951437 -0.106806137939659 -0.177143890210929 -0.143275969891636 -0.0193422996110150 0.00803181365440903 -0.148575746102883 -0.138984794072828 -0.00168026231006029 -0.110342356614402 -0.216882099330697 0.00932260351506623 -0.0872545973117924 0.160940354241962 0.0139599378400040 0.0173548228390063 -0.173863183051056 -0.257715062183441 -0.139744358181198 -0.0130693586807183 -0.198917372545885 -0.204254611093983 -0.106082540551715 -0.264388113767442 -0.129017518615010 -0.0372884692858112 0.159662099383599 -0.211155296209268 -0.548317966689232 -0.118582934043406 -0.230222126014216 -0.128131891803370 -0.178207209007161 -0.0460603310913853 -0.287489252614928 -0.0868829290644809 -0.0115367064784262 -0.0968837284369443 -0.193446666037146 -0.150050493028363 -0.243111552220048 0.0291302955959636 0.158964731750920 0.153762978935492 -0.0268046202159135 0.0647802773902335 -0.165577649026074 0.0383289964193935 -0.160549185751717 -0.00791367083672660 -0.0255824087949076 0.000630647042519499 -0.0979464088646391 -0.0656207105557865 -0.165162434613559 -0.104976911332655 0.0749760224715959 -0.0926621125862712 0.0366657389402011 -0.278251445277783 -0.124721942564269 -0.120501350952729 0.00973730771155606 0.0365796407848255 -0.0840144297824824 -0.292616202907459 -0.127431043331382 0.0129515985432096 -0.129139051778714 -0.0950468112952400 -0.0642692592777754 -0.321122342955920 0.00756557269006561 -0.0425842433490682 0.00573284105980024 -0.188116563454144 0.0600348256123561 -0.132506463816582 -0.162988461195075 -0.0543240929326917 0.0395723166432396 0.0881357180298447 -0.101849952222365 -0.275571825304748 -0.286825314668887 -0.220486273347295 -0.0471778885342165 0.169529404588481 -0.0817578467266490 0.195975591529215 -0.233705112093294 0.00450667375149702 -0.335576672050457 0.0159156156375084 -0.0419367971452452 0.116747754354654 -0.0206970739624382 -0.0418497989206905 -0.161170332087420 0.288551390502694 0.0271611877064311 0.0611561297398307 -0.0534373702977147 -0.0920886747750341 0.0778091211202714 0.144292265204507 0.0186020466303103 -0.212704497430768 0.118563531821249 -0.171655400977135 0.105101273053728 0.132571647205785 -0.213377072092694 0.137423660925800 0.117206532605594 -0.0942297767003594 -0.0466811559621159 0.0497079035626282 -0.0520115128710161 0.153597706659635 -0.101277045171655 -0.0656658874993015 -0.0112288329472541 -0.277361513532679 -0.0604972328366436 -0.0897726091284856 0.133311078038868 0.0709217025542156 -0.0862992386750148 0.128698926061510 -0.0149726291864821 0.187226183615812 -0.125734810841816 0.00582483985580909 -0.173897856407486 -0.452800737942872 -0.0821088739833279 -0.160433769132489 -0.225527648091198 -0.0431855162698176 -0.0648565249320280 -0.270699457450543 -0.109205710758045 0.0801272107052257 -0.250990430893698 -0.0622168767745691 -0.231448784410598 -0.266153812746608 0.0556546624400693 -0.0892521957996991 -0.107216533662870 -0.0599623157412524 -0.0250142752424752 0.309637214349113 0.0320085516354027 0.0389474369802081 -0.0397343816732906 -0.00329472190687780 -0.118487299843366 0.0664842945029972 -0.0178475557097686 -0.0788953383089002 0.0631350670840263 -0.104336617722938 -0.0503035008412455 0.169390714182618 0.104573941467842 -0.00740096240145564 0.127176044776804 -0.132203652516409 -0.255889324942751 -0.340498460123934 -0.0702997744903583 -0.0776531103425187 0.0816930266332626 0.0710147878843680 0.00768738819140870 -0.196856417046958 0.0671784033663257 0.296111544481079 -0.0814296934506813 -0.163569337887959 -0.0579659442831971 -0.168413013702165 -0.172765140515253 0.0300674392913418 0.101975731794780 0.119941814504031 -0.00705524510414696 -0.0172862626295810 -0.0880856355142939 -0.0357166214235703 0.0152848206926811 0.201216572628013 -0.0403015871950371 -0.0499990606372373 0.139975553528328 -0.0420247530899001 -0.154861306860297 0.0527028968703491 -0.0640608294712333 0.0691669962046356 -0.0658278314355082 -0.177254951485533 -0.118540180804944 -0.154649219323962 -0.135323944424060 0.0864759374568440 -0.123045415116770 0.0250609010281052 0.0366731751679357 -0.294759123013814 -0.224842913462134 -0.0743445939200175 -0.0956310542947443 -0.0134230741733855 0.223035892006876 0.0505195903777544 -0.0941629936508034 -0.0519640954952611 -0.0349034677045889 -0.00677359498056926 -0.0287849625033973 0.0521153593671583 0.102218882526934 0.178987327802935 -0.103720705754340 -0.128083886984137 0.0815883456749820 -0.0480407841289583 -0.189505762368419 0.174966343046238 -0.133508179911806 -0.170984307754161 -0.158307537080381 -0.192299277381884 -0.107494874614460 -0.101814679858381 -0.0113759268533910 0.00213211554654804 -0.151529799030785 -0.0148011319768832 -0.198582636417579 -0.0309090808913482 0.142067299356393 -0.160869295614794 0.00791640238465754 -0.0899755218173340 -0.0698439658980314 0.0184595758852717 -0.0407884276046928 0.0956827751105611 -0.0167298853726485 -0.0502352371005388 0.117445931421125 -0.0894908044583554 -0.0466746251675078 -0.227164138354285 -0.00655836327991484 0.00876282652865884 -0.0300656337431638 -0.137033734508789 -0.0871195045429915 -0.0117931765234031 -0.0772202183219733 -0.00898688482579837 0.175646591982561 0.0844144899935862 -0.0802144961276980 -0.0213511963017686 -0.134131322261091 -0.242503131763974 0.133134891677465 0.0390681285454326 -0.00943720989548010 -0.180644817145100 -0.194991915989684 0.0884766926982652 -0.0932224461731257 -0.00574856651315483 -0.0705649949716789 0.0732925961556822 -0.143559773154322 -0.128146366708971 0.0143492277670303 0.0686477462641337 -0.0483119776102273 -0.0743201584686314 -0.200321004189185 0.0159524639646662 0.0472552765131807 0.154747658141034 -0.286913413888714 -0.0993914394743371 0.0810376482082546 -0.0155905773211872 0.0221657354826367 -0.0972496729756947 -0.0269533863661512 -0.272800554121018 -0.129703191234306 -0.150353550292137 -0.103867924708876 0.0243401523590307 0.0776899723094972 -0.0395197129225765 -0.130376019710185 -0.156128502917315 -0.128037191889050 0.0714952876463223 -0.0733796634156242 0.137183554608514 0.0175934334782797 0.0552299423063015 -0.0821140035588256 0.0327149882791181 -0.0830254871591137 -0.0961908908133104 -0.00934495395261397 -0.180984843950924 -0.0696852488502218 -0.233684724188194 -0.162355540530291 -0.184698042940563 0.0750420539940688 0.0149010452562496 -0.0379950396178622 -0.118810511906012 -0.153216733683450 -0.183721905099197 0.00895081306061087 0.0377185762877652 -0.0660045941031422 -0.140491028085367 -0.0313348666129187 -0.00383247510394523 0.00229995588324964 -0.0648847947845203 -0.120141352257427 0.0160497309604760 0.0988087178237311 -0.0900683359910487 -0.114516606538642 -0.202842122658937 -0.0945136373052261 -0.114634149941307 -0.0176312307322834 -0.0344800646374972 -0.122174751887117 -0.272475007796141 -0.117486706307711 -0.149088062156557 -0.0281111336992015 -0.0998576117953434 -0.0797069022960884 -0.116540358691589 0.00832218354613063 -0.00337983972113794 -0.0424010948082153 -0.364728175784703 0.0640108146345588 -0.206093745245330 -0.118313613361876 0.0416474835244552 -0.0789192348567032 -0.116057185228039 -0.0163448831102415 0.0861965419694732 -0.142314986087327 -0.00477082664430693 -0.171452337292421 -0.0529625251315555 -0.169725690725581 -0.193820784251313 0.0195797647859951 -0.0640403307300545 -0.0625820592798818 -0.234687749544069 -0.181224106598577 0.154711996955412 0.0360577400096353 -0.143397415754540 -0.0948234242532502 -0.178402978284199 -0.0760555285154268 -0.131337572922576 -0.0580928732542644 -0.122330488489712 -0.0412367227540129 -0.239968796385265 -0.347057498262444 -0.212245258204460 -0.184888926728866 -0.0740546444262606 -0.0361398566427927 -0.238024727361256 -0.129084322760059 -0.254590917176735 -0.185518880505425 -0.153773980919273 -0.176073629422050 0.0681071706770683 -0.0456184472400630 -0.0742340786967498 -0.229451860575540 -0.0763401639902860 -0.0796493631565489 -0.0166622608388669 -0.0603854878778643 -0.336984492729714 -0.0819040313622322 -0.148482011473886 -0.0287393626604099 -0.245119514032875 -0.166298560649249 -0.200896066582025 -0.0490644330463009 -0.155738202338676 -0.127730628503388 -0.107113511804448 -0.221022837865566 -0.180835331747252 -0.0647332573536565 -0.102973273745890 -0.129152400053382 -0.122868128411658 -0.315231437097045 -0.0217492686738279 -0.136011806352078 -0.150167890428401 -0.200619109616095 -0.0746360954059273 -0.125635578992772 -0.0344710526030841 -0.0430800912011753 -0.0582910897167092 -0.0550427721107423 -0.0988983681127398 -0.131324400033394 -0.0579237483118569 -0.113773771059734 0.0382359774703420 -0.220077216030659 -0.132654768521248 -0.0820286241256321 -0.0843000084007017 -0.264866158549584 -0.142431842110870 -0.0644361922217373 -0.148798771681355 -0.191709142890446 -0.0816940302083154 -0.131949270838591 -0.0176619789294564 -0.203544536482159 -0.114887651473342 0.0156988276832800 -0.232301721378309 -0.145549809029594 -0.141331404095684 -0.0261925518194119 -0.144119175906440 -0.0657968659972964 -0.0227410072422555 -0.0518361866369736 -0.142288726685659 -0.0925175914215518 -0.0916748060723319 -0.118624813585409 -0.139158889121566 -0.143849152165693 -0.0799721262069535 -0.149654798458364 0.0528378144266463 -0.134562988353870 -0.0838605532920168 0.0702210191458729 -0.179552825676372 -0.173456252246772 -0.111115317061490 -0.161566123161345 -0.0263492632972658 -0.0139509109073014 -0.0412197845253139 -0.106792209296758 0.114086215602429 0.00440282732102554 -0.188207068213387 -0.207344341191845 0.116045921854716 -0.247249755007248 -0.171266489182488 0.0246535563794605 0.0171737690857482 -0.155664500631615 -0.0556818016754616 -0.0115048855099573 -0.112689486347410 -0.266289387400574 -0.217384309951887 -0.275635133332090 -0.0345287490605168 -0.200524974675398 -0.178588776818615 -0.192017946021541 -0.328869498305176 -0.0664429873971550 -0.114096289065705 -0.112778686142109 -0.107776978220418 -0.0112013788456609 -0.122296786323494 0.0425416949066042 0.0701794464675538 0.0403052692695350 -0.177019949716858 0.0232887405891461 -0.0525112073160356 -0.230797273131709 0.00744507515855483 -0.0278774289587237 -0.231188348718869 -0.0699647546219247 -0.209614998656870 -0.0914005274765657 -0.0844555822837862 -0.137669820931512 0.104238507068242 -0.0853257535749933 -0.176388158173516 0.000702472637133907 -0.0723474045849061 -0.0918059101340022 -0.0639372108002139 -0.0570261848957125 -0.104945395257485 -0.00656937612138086 -0.184390254702213 -0.211345130512901 0.156883083679353 -0.0717589787274465 -0.110521303355342 -0.469542745202594 0.116386189269533 0.169875275694414 -0.0982586075740145 -0.0739310596010273 0.00361023593356887 0.110804102920910 0.144659741516538 -0.0328033210689078 0.00564874345164045 0.137858357233012 0.0677510344300828 0.0423629755074011 0.0800495414910461 -0.138788630585828 0.0208160199102964 -0.0766026989939970 -0.311936164989271 -0.113319647549969 0.00703713778212362 -0.132912589597143 -0.139644670933260 -0.0622886921209080 -0.140506535195514 -0.0351047520721658 0.0835081435595213 -0.0657587676323894 -0.194524533935643 -0.0920228933511331 -0.206723198668833 -0.0896725737485574 -0.0351501072159301 -0.138285793523548 -0.196422818770285 0.0343055601247117 0.0316856084935902 -0.204455188977568 -0.0226457349719346 -0.0359321616499478 -0.146093027738701 -0.127470825292565 -0.0209868797579049 0.0795714550019162 0.0489526373012286 -0.279800156961491 -0.144279271585559 -0.272801482111356 -0.104359580075495 -0.160332542366098 -0.00448739267659501 -0.137039100302856 -0.109497456524430 0.195230652061026 -0.0765548835891307 -0.0315543160231198 -0.0296021894417132 -0.217904902071393 -0.0742594371462656 -0.0647058370296694 -0.180420716502223 -0.144151617297919 -0.0244689597688808 0.0183695500599742 -0.128911472288352 -0.326161050275577 -0.0796072235708383 -0.00820784095145989 0.103054331098083 -0.113541448558494 -0.0290112263714115 -0.114810519084905 0.0271608388091398 -0.0519153048258294 0.172667940500641 -0.315373379682558 -0.121082166080346 -0.219319243670947 0.108243458116407 -0.0826937335253588 0.101676800008605 -0.0774744693166324 0.0155313965646354 -0.180527062301060 -0.0893451549967087 0.0241031567228887 -0.0995985282698013 -0.317279691747568 0.0340950257130077 0.0632930322435606 0.00926904456867005 -0.165219432166213 0.0586239113892383 -0.0710768590066563 -0.105511942037777 -0.0410384701348152 -0.0955142493487785 0.104230784175477 0.0934995205239837 0.0825352196116232 0.178002303206603 0.251850625936392 0.0754793447056966 -0.300375810969387 -0.169690482279853 -0.00158347601154661 -0.0137511344818552 0.116841787832460 -0.000609309580553167 0.120951797474371 0.0834694654582973 -0.104926070670468 0.0119268732129440 0.0679211330357521 -0.354505445661431 -0.107142268595441 -0.176476283616090 -0.205940537388903 -0.136188386346554 -0.0797323838078072 -0.254043239554528 -0.118725866793464 -0.0174090056090774 -0.0176792445432723 0.121473897682019 0.231732006307862 0.258712729342583 -0.356239467898106 -0.133384622984637 -0.201877456093569 -0.00262149019127449 -0.155037859762955 -0.121426909898314 -0.0272276761115857 -0.123122292666230 -0.0789978153548223 0.149468076552005 -0.303675924661474 -0.0539763914132459 -0.0795853373739007 0.184943939388863 0.000345081390876023 -0.301106629858017 -0.160558583147685 -0.0154579037137789 -0.179014564707869 -0.131622692927180 -0.106428267912393 -0.0194745346587417 -0.0606895670551645 -0.0748475452442986 -0.0441409974348589 0.154013488192642 0.301980008730453 -0.232276776947641 -0.257551349963117 -0.209813800854210 -0.0554211676872757 0.267456975582638 -0.168447760256159 0.0340076647532845 -0.0675885323376734 -0.138264631083859 0.0780005165211830 0.0764571702020024 -0.114355841977280 -0.150638666684162 0.183387313975679 0.0449877804143447 -0.126460744151723 0.0573235018838249 -0.241314151248664 0.0794924760269483 -0.145961061992472 -0.106612926815693 -0.0541765379856321 -0.194260689689541 -0.127025170258148 -0.00522926613875114 0.162004699687772 0.0602520240312991 -0.198724617638392 0.0269086771267320 -0.111410955906855 -0.149636840835561 -0.107443033948787 -0.00321731303482742 0.103754387909282 -0.0384248101871016 -0.142702974797380 0.00152478253441384 0.0914149452015903 0.108907096998150 -0.187768169416020 -0.245355007600914 0.0446537000793937 -0.0117065590279155 -0.174466037711936 0.191143730682974 -0.100412759770347 -0.167705044779469 -0.0185903828278863 -0.00772173469414999 -0.00580793573105786 -0.0461449251462765 -0.126538839617010 -0.103321824393955 -0.315012283395652 -0.0199136216579929 -0.176303475757854 -0.144314568754983 -0.0116787464584466 -0.0176727311892009 -0.0802906383252673 0.112848586405183 -0.0996960461840717 -0.168928684482776 -0.0360326604035258 0.142180193003468 -0.163458605753825 -0.0690186526085793 0.0517734453417821 0.00867789020418029 -0.128665006245741 0.0206020790690962 -0.0500000014903332 -0.218185121545727 -0.168156990785777 -0.173058014609463 0.0217107225575721 -0.0966250962768207 -0.0730670715453045 0.0896640882195912 -0.102498794851371 -0.0243136804891177 0.0392980179356590 -0.0769390682722424 -0.420667047369952 -0.0777477263033964 -0.316235714672771 -0.0310684900566710 -0.134352277538319 -0.317341730131379 -0.222504089462876 -0.185839497563435 -0.0559344599954014 0.125788052536730 -0.0839919621219015 -0.165696684932312 -0.151822978989921 0.222855880306903 0.150398526225906 0.0374848476814155 -0.00532093911696486 0.0244127074754739 -0.111468465681364 -0.329830399728504 -0.0646636864504833 -0.170396479534915 0.121354161004887 -0.0384873021061696 -0.250290932505807 -0.134749439452060 -0.216705452200033 -0.102652827410336 0.174762976706496 0.0213482886826652 -0.192190729571095 -0.0991408781151377 -0.244554266711378 0.0506246814828320 -0.0690156249196346 0.0634119018668383 -0.00241702383878931 -0.0761872886255289 -0.0120180586405130 0.0392313718198402 -0.197448115595610 -0.208610040435623 0.0288973622037081 0.00471344490462031 0.165878712648268 -0.00283029946976008 -0.121773225869534 -0.102720891476493 -0.212471155325982 -0.148149018522188 0.0355051857301037 -0.289334673291263 -0.0205807509619826 0.0405674116905199 -0.128895204419301 -0.238426360822606 -0.0172637271550205 -0.151968209180882 -0.103023655922359 -0.0229354091214176 -0.124712798082636 0.270523781910538 -0.0445443163797429 -0.185417436371831 0.113469087709195 0.206147277473207 0.422919937227170 -0.197022474416170 -0.0797250302899678 -0.105948593879084 -0.0308882063644656 0.126227921570014 -0.0658916285937483 0.190565516343271 -0.186933110235667 -0.0903297924972197 0.114809786528894 0.235993269884676 -0.203327543985600 -0.434981771568893 0.377947110457382 -0.217117034760307 -0.0311353585951139 0.00236315036935918 -0.257856174127342 -0.0222331804681749 -0.0160366037923834 -0.223242349388969 -0.376136630697494 0.449785297250980 0.0312282002493542 0.164202927848601 -0.0734700826680991 -0.138661226431651 0.228748678031991 -0.0645617614640473 -0.120781377764801 -0.151552414646427 -0.0177184867324499 -0.00971536216987537 -0.0574687567258615 0.0724515873773997 -0.102600325025975 0.307268121444688 -0.124273203276094 0.168626192836168 -0.158945575676622 -0.142776438122481 -0.350515476709627 0.0242213920288568 -0.159441545437997 0.214289214474969 0.166544408229912 -0.161773739694876 -0.248215592839957 -0.0621628873226001 0.353953130955200 -0.0929634551276204 0.126625072156707 -0.321606972568334 0.147648993382510 0.0844617515267332 -0.175531495107939 0.152394285975913 -0.00755852115350853 0.345365920577056 0.0837833604692672 0.0310829262286289 0.372338141675834 -0.196391653223740 -0.0763280334621436 -0.0146361979680446 0.125034032652649 0.226803838803100 -0.314607631922748 0.0813156923695093 -0.221679689752292 0.143524622770536 0.0235898249963747 -0.258194356034782 0.0675697644426187 -0.243616638689157 -0.0340374648123358 0.0503978352998343 -0.0141921480368025 0.0130858959075316 -0.0922702109084228 0.0746731203317151 0.276377864348279 -0.0851589791484476 -0.454072206338731 0.124976591757946 -0.0674630447983054 0.0232469985186775 -0.412070941973187 -0.166653058687841 -0.230773844478467 0.221050783147618 0.0629639088983431 0.179062894014656 -0.255988813634637 0.291267413985270 -0.117184042388694 -0.145384092986098 0.117897108419913 0.0430317710727591 -0.0777451635099468 0.184885698579846 -0.146569930523167 0.0608098791143699 -0.328307426294895 -0.379476237188861 0.149890525389266 -0.264266337892912 0.162070827027053 0.139323234838720 -0.244667251077233 -0.207239006576704 0.0472766414061327 0.104973363604143 0.00689793341572947 -0.0780706196836583 -0.155239591955929 -0.180669157216258 -0.0195025650359316 0.0387962599127878 -0.0553091711701913 -0.140025649105984 0.349874116876081 0.154148573287965 -0.321561470683399 -0.219216389322067 -0.297598865145486 -0.0353766315979074 -0.129197515654541 0.0447326375520267 -0.0304082882662217 0.0686250419085039 0.0653583640488361 -0.137464918993643 -0.162347410382470 0.324085422056545 0.170909325935024 0.0638222445387684 0.0371390017345967 -0.362452830489916 0.129074039394837 0.0822174430453922 -0.0459125107277566 -0.221135008368533 0.0216049300503668 0.187617176399201 -0.114747410833231 -0.189179194699976 -0.211805505610554 -0.0857700784932813 -0.0820808864277644 -0.219890169139527 -0.177804216256695 -0.150030501214681 -0.0821870971341100 -0.0600915483087130 -0.121998697055684 -0.126322773081560 -0.0332579010948021 -0.107323245622741 0.115213048375449 -0.114736620970941 -0.0512598889220562 -0.178747074571331 0.159109403278983 -0.0572710208288184 -0.0761095023248085 -0.0574604209412565 -0.299720554292878 -0.0388796957003221 0.0338132806801175 -0.0533284778427243 -0.0964690793507307 0.00803245392555187 -0.0236816566630807 -0.0663274100381504 0.124206268159445 -0.0654150513953460 -0.341444419778112 -0.0970539004482683 -0.244753031352142 -0.126166287331853 -0.0421713920907135 -0.0668023449086078 -0.119115117174435 -0.184026916232388 -0.0277668291556543 -0.139702489676706 -0.108733683656069 0.0584323200067983 -0.0345345418670069 -0.0799510583377660 -0.105224287885585 -0.275009600119521 -0.136529230140223 -0.0948432293106306 -0.0498892062901456 0.197990502414975 0.0874362866445053 -0.141274893081213 0.0176365432222169 -0.0987657244768508 -0.0898303084250638 -0.284376267268324 -0.0102632281879962 -0.0895289162204034 -0.0418291030880395 -0.0661308767745019 -0.229332571350521 -0.0970879949051511 0.00789896302436473 0.0418910236118415 -0.190787254890117 -0.136784073536955 -0.000444573367322298 -0.0422976905470338 -0.242156776583156 -0.0905695090025535 -0.143441779079443 0.132225953197665 -0.149585490457761 -0.115239138248057 0.0516095141997119 -0.224094180898305 -0.0649257283987107 -0.102047678463633 -0.293815553668897 -0.176697291200643 -0.164324016633972 -0.188655411143224 0.101463254044114 -0.0538883841730462 0.0786038912602651 -0.156035706013337 -0.220488264415643 0.0208509402938332 -0.219566918568355 -0.00669263087858014 -0.233518889462990 -0.171497968080650 -0.108158940628763 0.274569030595340 -0.0358481795896525 0.122447706669304 0.0924866093379440 -0.0124107232745696 0.129666061008602 -0.0467772133588401 -0.142956208278718 -0.0650835937513497 -0.140434983843608 0.0560787570803030 0.0279240128258362 0.0286299283161412 -0.108693858165794 -0.206396679204647 -0.0887569203979781 0.00532069541765094 -0.0596432449992495 -0.0380939939379475 -0.330366489782070 -0.176139798868648 -0.0767523651574162 -0.195099541008943 -0.0703728946201769 -0.150937714733415 0.0749468271596860 -0.165656185877193 0.0226944178014399 -0.110517835564467 -0.182444049637217 -0.00740416450905595 0.123553216152458 -0.0753298763138030 -0.209492153120691 -0.0361959696321653 -0.105665971719258 -0.0734040003374612 0.0432803258801353 -0.0603087000042043 -0.211024913426572 -0.0782856792013353 -0.191869797514846 0.0313099441699434 -0.188436095094180 -0.110802732096032 -0.101088246729740 -0.0529345679355040 -0.229708277019676 -0.355208456701127 -0.267015323197978 -0.241985943601828 0.0379163999611757 -0.357477441455086 -0.209141086024201 0.0640108196559564 -0.0930619163303035 -0.00496589806150507 -0.0766925847567240 0.0670749636844590 -0.104405084805353 -0.131223992722732 0.0217224618634510 -0.206664209788023 -0.213269716400722 0.0267029361594644 -0.0369264587866858 -0.000565045608546954 0.0116656977902249 0.0583730960970560 -0.0481018244828673 -0.0973580454155236 -0.0336346827027193 -0.106024525555733 0.131034576210286 -0.0646426321889375 -0.125159693324870 -0.168568428145682 -0.143557499566619 -0.0957936609072594 -0.0788955973399431 -0.157494536836659 0.0499884794277481 -0.0197868920739107 0.0436310334420782 -0.135973985349439 -0.0241344104520196 -0.0367778328899834 -0.202452730962169 -0.223255761066649 -0.163377093911112 -0.0355493441340013 0.181539848853522 0.00891133590851401 -0.121133819974252 0.0205178116150858 0.0784060512079011 -0.226343803108721 -0.0688042209806697 -0.233659316597474 -0.0386129066755995 0.0497599395862105 -0.0672678178815525 -0.0472107449862470 0.0835895483017828 -0.214495278791410 -0.0493863717725844 -0.0197265571002433 0.00913166357360644 -0.0501946384396938 0.0180496907980081 -0.0861129847309294 0.00862407600442493 -0.0615427412870793 -0.165621667899970 -0.0711629743065350 -0.106122579510913 0.0920302674718437 -0.121931696806868 0.0962568649828400 0.0600188151866086 -0.0714567926429231 0.0470060433330095 -0.174401392087744 -0.0801619925548352 -0.0793823941672025 -0.0521320201839277 0.0119693734706773 -0.173709167169232 0.0461884761103957 -0.150002003899175 -0.106045095194012 -0.181306861387160 -0.0106624370768913 -0.0956124301107281 -0.104210147150468 -0.305079485321424 -0.0691931205903189 -0.202949849568624 -0.113123036554262 -0.114888915037568 -0.0259811657485760 -0.0653845312703028 0.0640821639689960 -0.127872669741150 0.00397300604030097 0.0252744331149735 -0.136893763442719 -0.142318621259792 -0.267605701777264 0.0171196355507337 -0.0536927910969144 -0.0488167914026997 -0.159428393747339 -0.0840864519223434 0.0457139298688033 -0.156765002634307 0.00764935849414052 0.0810277891573668 -0.0134229815865289 -0.0869645550985948 -0.0658850499519240 -0.155639745215024 -0.0891055396700089 -0.0906213078500060 0.124445029502850 0.0328553850996897 -0.127602037724831 -0.140023021215195 0.0272574678778228 -0.147534773874135 -0.172168712501442 -0.0814626310056975 -0.165396618185578 -0.0689712184389425 -0.0125813621645093 -0.0825670601262070 -0.232066879979949 -0.138406146059500 -0.0331843827160341 -0.210339277118916 0.0556337097506586 -0.232995447304227 0.162704232685302 0.00190202953638434 -0.0503061484883953 -0.0140738692866036 -0.0868627712080985 -0.117167386244431 -0.153646273919325 -0.0788544690349256 -0.117738329497424 0.0402682810078398 0.0691451047067422 -0.228057991565644 -0.0466249303307297 -0.0584660935462874 0.121121916748782 -0.241443471541171 -0.139369774546524 0.00620552071228622 -0.175594186277780 0.0396270588625131 -0.0214070648267910 -0.128400017736885 -0.00627571518184314 -0.196379779922195 -0.0568073300755873 -0.299309545243805 0.0283315758987259 0.510910883516729 -0.0354214809235552 -0.270278785365922 -0.382608849511920 0.187782249826018 0.0317579478411696 0.472682590826326 0.182047242727211 0.177096904477225 -0.182707676292321 0.0286889337223804 0.111005573954533 0.0965907273967056 -0.0356202666942537 0.301251032111854 -0.0574130868193415 -0.358084130856791 0.0618521528458105 -0.605354755630211 -0.271691089580334 -0.0362944943863890 -0.631029955243879 0.0149546429833436 -0.152060379444821 -0.230127274197700 0.529482187495616 0.232282339792518 -0.135918302721171 0.334460821327996 -0.234579094963386 -0.148299518908180 -0.00578604723613364 0.0111275144468716 -0.219983110195978 -0.0657490451854613 0.252729084180253 0.164343441077699 0.580816808148301 0.248317813680267 0.531776734777607 -0.373892275237478 -0.525450315249263 0.337503582318781 -0.259383362972895 -0.268832997651221 0.379252529147264 -0.291166915277709 -0.352619399367239 -0.296001803712573 -0.0682545734500942 -0.0517101120866222 -0.199958700483625 -0.137333381527119 -0.229202793149501 0.107549203471550 0.0621613039508267 -0.326789194446547 -0.162061137373337 -0.320406994184904 -0.0756886493309263 0.240628461565806 -0.116530714664016 0.108569153026237 -0.0968600153558584 0.0792525585983362 -0.0549647629056703 -0.322362807216000 0.250373797022956 -0.143870147172842 0.210444117269266 0.00600056533272591 0.567693161856100 -0.0271812224909870 -0.119155002620305 -0.214481664951739 -0.0481250598049402 0.0367464756251386 -0.135553779988787 -0.290403490056157 0.152814789963232 0.403359094976579 0.113534755460666 0.309973870366253 -0.129957122838979 0.0471818173844011 0.0758146839173050 -0.284313750572222 -0.131454599343963 -0.141097022069696 0.0384711236484415 -0.105856125562612 0.162407036018902 0.0801115832304066 -0.277405075034406 -0.0724476426361298 -0.183327540047560 -0.00224670585853557 0.438969327660704 -0.236435517625272 0.510669339885218 -0.0546197597146497 0.441575252628742 -0.122931524589916 -0.296890531700156 -0.319593815529093 -0.463335017059142 0.428919711292544 -0.130758580153900 -0.245426402905169 0.346174744257093 0.0685537409317210 0.0396619949534807 0.286835537811611 0.0701117455888927 0.272269874669291 -0.0963689500519927 0.0282711193955977 0.125661517461159 -0.123334721228342 0.0314886891586166 0.322280851824358 -0.0793989871329095 0.0758892479601098 -0.0237205620001865 -0.133350537308660 0.134273312196378 -0.374727480440004 0.0807888798888187 0.227346385409909 0.0670979487795312 -0.101971700882243 0.122233278382096 -0.176344335219505 -0.0153575254188724 0.0432692624676006 -0.329796117552215 0.472861464464091 0.0430925022046129 -0.504988558607231 -0.0837220873889388 0.134090824814348 0.122478055657882 -0.108310741051951 -0.220367337180594 0.0314340936746819 0.0115225087068706 -0.327990340981282 -0.0438695160883755 -0.0536312852757110 -0.0197699814814197 0.226577461245570 -0.201529439077977 -0.132038475183315 -0.119993856404235 0.201044757620163 -0.126326238724102 -0.292521242353645 -0.0293340029207126 -0.0307605608452361 -0.211957148804679 0.313917620028975 0.0153569233226657 -0.0977500854850966 -0.167273630148867 0.0472802686724343 0.00256497964436991 -0.0546977552642309 -0.0586669468109976 -0.206343199051055 -0.00585769710550103 -0.115642137622827 -0.157200987245382 -0.151304068639000 -0.0829436499377243 -0.191900436522505 0.0369816336919305 0.0373031176859643 -0.0773270615117452 -0.0819632997043103 -0.0843008324901096 -0.112966054645833 -0.0216626671418534 -0.197620224576425 -0.175969573705149 -0.132025665143519 -0.00290688435610011 -0.123981179630958 0.0549287837723782 -0.134810623327921 0.190560316058164 -0.169772477468035 -0.267056370827091 -0.0604270497607912 -0.122117921028269 -0.206804560970355 0.162294757500109 0.00150619456743941 -0.134920112419953 -0.0479448253071389 -0.144232211858589 -0.0588256314984004 -0.124710678709914 -0.0763736045387457 -0.00893321788845526 -0.0573838540503298 -0.0492869025863803 0.00368610418931611 -0.00113033247893260 -0.118201868203646 0.166846335239359 -0.0687982496815483 -0.108915193743227 0.0150288073766809 -0.0163826340259862 0.0171822817479426 -0.0409137339819481 -0.0881415877930240 -0.00363536598633035 -0.0194927704857455 -0.0231697259035285 -0.00965043586932006 0.119852469176392 -0.0997303416036370 -0.148341708107942 -0.192414567751227 -0.00942997167961706 -0.140860909460409 -0.103747724361649 -0.138960035357659 -0.101660891263109 -0.241396961685020 0.0104634783615133 0.107061809129250 -0.213119446434856 -0.149151906835329 0.0552921789142132 -0.215067508791462 -0.295394960580876 0.0487830955572904 -0.0971451246025504 -0.0857420481525513 -0.0468385846154507 0.0769922656902735 -0.0131654263385734 0.0745096801912826 -0.185157834678378 -0.0416671939582808 0.0916006143667779 -0.128644214224549 0.107919056136436 -0.0120160890252937 0.209718405792661 0.0468068792592599 -0.123551368795572 -0.0611978107437328 -0.0934643322348127 0.184172950917304 -0.224868553580909 -0.208659074313228 -0.0294131701900379 -0.214336347937343 -0.223410170853020 -0.141434955349540 -0.101808580501574 -0.104016196498482 -0.0703498367528313 -0.380125880787249 0.0274877977035879 -0.0450617215110217 -0.142982107074160 0.129266842659726 -0.0673638158331675 -0.0811445992715488 0.173535975164578 -0.196690267801759 -0.192279489588682 -0.140488898886283 -0.0583496188806001 0.0107011456846034 -0.197789022997251 -0.0108063555727439 0.141386609311854 -0.169784243120224 -0.161851157326943 -0.0692885349620849 0.0690947464077959 0.0591004662173159 -0.138762919936005 -0.191942095918061 -0.236654448889674 -0.0291545184312474 0.0314166976963102 -0.188307737821066 -0.216934048393777 -0.160775525930300 -0.110449301234840 -0.0462784350046452 -0.00717558236676018 -0.112407527558991 -0.0883217754221748 -0.175209278451792 -0.271783746176889 -0.00809640329207536 -0.262542763261358 -0.00208791789144271 -0.149127456187705 -0.0641661823932510 -0.213138702923732 -0.125261727611474 -0.0752260513932351 -0.0213364065688992 0.00798557668195331 -0.223987592366520 -0.117052966144959 -0.118727441873514 -0.239312726087332 -0.256993847131486 -0.0951432676655480 -0.184432794089721 -0.0615548244192085 -0.00782387256283261 -0.220166020831695 0.0878825737119102 -0.191450007695695 -0.165362670405397 -0.00924741593389386 -0.161846224453310 -0.280842531911291 0.0330696791206204 -0.117982355086251 -0.0474586410829643 -0.0793166445639743 -0.209983904277867 -0.123369114723666 -0.336277692479500 -0.213442671971904 -0.0513259721481559 -0.145487085690624 -0.0745348370968704 -0.00511051975032236 -0.132056277579952 0.0294406661827038 -0.230220236696767 -0.0147620619305759 -0.133443111374901 -0.0894902039275876 -0.162449518966084 -0.0803451321303451 -0.106974837246308 -0.0297936245211387 -0.124503510676629 -0.198421905648422 0.0118495839728112 -0.00306823992294680 0.0424508092535463 -0.244084248217373 -0.117269716373824 -0.147442741271119 -0.183800354052728 -0.130126018538727 -0.147176698408516 -0.176141863573243 -0.0615083095630910 -0.136007668380312 -0.183859595016508 -0.00464807920316673 -0.109495431713301 -0.111500644312757 -0.0535929981378412 -0.158931734304656 -0.214553863205444 -0.180923038301860 -0.194445008026154 -0.132430124692849 -0.234058539438378 -0.0750162690123487 -0.190221364558809 0.0222014708847732 -0.305411558161681 -0.281797498278289 0.0292997517006994 -0.105871765020028 -0.0790051010608482 -0.307281750016884 -0.0642958104302800 -0.261683760491646 -0.106576688736645 -0.233045499547244 -0.163648720590902 -0.0870840272228562 -0.130031833136164 -0.142953530322466 -0.213913109088977 -0.0921649434017435 -0.302250218274505 0.0661505938198363 0.00368648698899697 -0.328759100478232 -0.0557914652034650 -0.106451340882849 -0.329141574094413 -0.237403120022450 -0.0144469315688293 -0.198610013383066 -0.0397263251865705 -0.160022009515618 -0.103610999270074 -0.152033974272663 0.000565824549510058 -0.108291698946651 -0.177850944911253 -0.179288961740448 -0.0155509328701379 -0.0465925671001952 0.0369861276890664 -0.0526956047938207 -0.0477397091373520 -0.372995674798126 -0.144551939504627 -0.326629650128815 -0.0749296125807876 -0.106322063100700 -0.111779038315090 0.176393014175049 -0.149781013286669 -0.210424059389334 -0.101561423376396 -0.225261596900236 -0.0423589709922099 -0.146696638875571 -0.0466929754042224 -0.0551103955790570 -0.156243123527332 -0.223047885059222 -0.0462864586387442 -0.211021116688196 -0.0119394788323337 -0.150530532879608 -0.112409882643100 -0.165803628161245 -0.0968573191425532 -0.287765130551228 0.00229367077024753 -0.112823750960539 -0.212578952263366 0.0712000320298176 -0.275665138415419 0.0765529882284708 -0.191024403507802 -0.0267033436326240 0.0393822685455856 -0.118494430540337 -0.137674573294135 -0.185771251064579 -0.118474794015723 -0.00871557332601145 -0.244081051748245 0.214043085737589 0.00656476559938450 -0.0597236255843786 -0.00493067139104979 -0.00363069309129753 -0.120176077667613 -0.0859095005775358 0.286269009233122 -0.187402524536922 -0.178225651876945 0.0627976802600096 -0.132845351517899 -0.00706342147173061 -0.206583618517495 -0.293052931559931 -0.210580754573004 0.106984223782107 -0.338070334963086 -0.239268123087050 0.143765522754151 -0.406552186591047 -0.160837940988030 -0.207602364891826 -0.119077470632473 0.122719824106511 0.109184155084375 0.0653838696903781 -0.168622579013137 -0.136995033920210 -0.0224537270189926 0.0224294080340247 -0.222394444646202 -0.120233098558469 -0.388181630989470 -0.101604400898074 -0.00458839367524171 -0.100071910078032 -0.243050175374382 0.149462498597457 -0.00506876245180208 -0.293034967847839 -0.308483386319429 0.0308936155997265 -0.0131538982962008 -0.111625941653930 -0.337128720149601 -0.524176270493754 -0.379509028019001 -0.0657095003074197 -0.144076005943587 -0.160926890633052 -0.183840599725413 -0.0825599536119001 0.286131128754124 0.00277943347068236 -0.200493627114181 -0.285687933890116 0.0502483470560280 -0.194679799657754 -0.247508121081547 0.0630395575052630 -0.238953754315452 -0.112341517683705 -0.135881486085838 0.148787572423659 -0.194399305589983 -0.396307962001212 0.00255851619726580 -0.423616889073802 -0.204104939320781 -0.159669156502249 -0.0561031801024625 -0.0148344607053870 -0.0335419820290528 -0.285446443589793 0.0680744430251867 -0.0948002693788497 -0.209423282680601 0.204490313222630 -0.0379835606908785 -0.294252072521047 -0.0989304131597945 0.0669918863197165 -0.305000872519157 0.118822455399431 0.201764013835199 -0.222737456341505 -0.0862352119084229 -0.0212742326694386 -0.192062573910215 -0.126486915013368 0.0345668941369423 0.186272039787992 -0.129170175282490 0.0594698148447525 -0.125686464575394 -0.181987146052702 -0.351247808437322 -0.485661415918483 -0.202786908617163 0.0857058545494536 -0.357392413444795 -0.288901438196282 -0.205535093648932 -0.226236675716435 -0.202274334516805 -0.195423920606453 -0.237621423414132 -0.253339103765738 -0.189609676254423 -0.178894922667138 -0.186617191940375 -0.0851868275182519 -0.0452145703126966 -0.234286340573412 -0.0735950935420230 -0.141640260717295 -0.0705007047476629 -0.457011572396774 -0.283343074936588 0.0150393308025773 -0.136956654376532 -0.0631062356578141 -0.0943243293806237 -0.171048456484578 -0.00280476447763546 0.0258537507312159 -0.202887269433700 -0.282591346901861 -0.229690291586977 0.220852912346576 -0.230031077692093 -0.303615618385674 -0.142208113482954 -0.114148133848407 -0.0614647037728842 0.00945170630206526 -0.0489831866987334 -0.318911381188364 -0.117490121868404 -0.182244259218490 -0.192527403384038 0.0264310614084674 -0.00428039421811073 -0.252367997445307 -0.0808244798574441 -0.154578049923315 -0.158563038474485 -0.239038473970104 -0.00913956449587693 0.0769547215229740 -0.0741036000793828 -0.175955434519608 -0.286718546533489 0.0870988827117612 -0.104645636155913 -0.196381419011837 -0.100254629642467 -0.179402237779142 0.00465935695829152 0.184219504410721 -0.102017797610317 -0.104913008092755 -0.0467757746298020 -0.0668183034262837 -0.0175668655905165 -0.0579820776698761 0.0226129667452217 -0.132108722711954 -0.0999970518248651 -0.0137787120201386 -0.116119312876354 -0.184277823473660 0.0194933155233495 -0.154399786848880 -0.0321932187084998 -0.0930726441776946 -0.0761561531632680 -0.130876702540477 -0.135743005362108 0.0299702075925622 -0.185361911268859 -0.125604509021224 -0.0722881929977617 0.0320237340601427 -0.280700390095224 -0.165125301200779 -0.180636677541757 -0.122614389131918 -0.121933051987013 -0.0856598798634519 -0.0964883463583569 -0.181109887936706 -0.0906302869021089 -0.167439056091732 -0.150771095371627 -0.166967341835782 -0.200259418114396 -0.335471425951210 -0.339481867839388 -0.192456621275359 -0.134380600313615 -0.229337921033395 -0.166577797984027 0.0561157573702795 -0.0365054447994566 -0.209936221508429 0.0105888138241544 -0.123261297952618 -0.0974141343717091 -0.117699391959174 -0.144522384628737 -0.0608265051492366 -0.0270879254838062 -0.0364269891668951 -0.0603579686777481 -0.0539091004013599 -0.142540865828749 -0.176598032807668 -0.0772062026404840 -0.264712265898135 -0.110418060744687 -0.107976986618134 -0.182559989447666 -0.294508459880514 -0.168276208387477 -0.204036875907126 -0.199354152051521 -0.173258442419253 -0.100731078155029 -0.159088086394804 -0.219587740198851 -0.211469592032857 -0.210160936896541 -0.153575987067835 -0.0658246323061098 -0.0879921588115034 -0.208619538499655 -0.0971324506285066 -0.109273427979125 0.00262715772934790 -0.157924182239224 -0.156237113411711 0.0745933938755710 -0.00518060994581590 -0.176317978622565 -0.0127686919673741 -0.145776852548979 -0.130540954439213 0.0231477958660465 -0.176932457129927 -0.160044997511214 -0.152850260198571 -0.235824541940456 -0.216374742703460 -0.188387540157731 -0.245315467511972 -0.0635340720395792 -0.275504662589729 -0.0463227989035857 -0.0713875911667433 -0.0123194826984549 -0.141681786507337 -0.282937847068605 0.0192333214020069 -0.161394601706221 -0.0882101739160247 -0.146511461667795 0.0118688383903296 -0.133071919789244 -0.131695148941675 -0.0353575203619415 -0.120218188703571 -0.108295135005890 -0.0349674041639249 -0.121553913192736 -0.187371844766392 -0.177157709991359 -0.218138275332183 -0.159677878709052 -0.116952961007711 -0.0586784425452143 -0.0730742824447645 -0.0951161427218866 -0.398799256133847 0.367531676298736 -0.121007402326208 0.241035941569700 0.827076545861237 0.424424415952745 0.405961943706876 0.344708703234007 0.479711161536465 0.518767453634832 0.917851037276058 0.0402010241401366 -0.0530595063499522 0.755475734041301 0.423978501203707 -0.605491718226197 0.613853265647506 0.184013642544283 -0.195060415689657 -0.270310222608924 -0.125486912289740 -0.753513266304706 -1.01439427119072 0.727101716368680 -0.527137666398311 0.318240505741103 0.714995108725717 0.574655279273225 0.414895228202278 1.00951351346706 0.0708390801414235 -0.347136502472551 0.522255223942195 0.103732785112060 -0.631254110725613 0.224659954168642 -0.0873602193388844 0.222169487496893 0.0690615813214166 -0.272932080181374 -0.683816049721999 0.639008681985924 0.963818797071608 -0.534773418786768 -0.00680934838773106 -0.567043064153999 -0.184258301715676 -0.535303209178552 0.596064235435428 -0.660724505046707 1.11363653585798 -0.362180528555628 0.612153241849149 0.0170542379109341 -0.218792596895162 0.448068034514991 0.0228553996175766 -0.0423342660191941 -0.0627980401747593 0.660830005571773 0.410167226684616 0.208831751537046 -0.281784674035973 0.543928019295636 -0.231367876706469 -0.810823698493905 0.313034298928683 -0.282905971096646 0.453233896139040 0.974604200459149 -0.156620522034866 0.0254787222876728 -0.495436349416908 0.231329917389268 0.0456968777644480 -0.240708692803532 0.440001048061695 -0.810247427989413 -0.796118655579013 0.0964223637575753 0.915794355006238 0.211309974655204 -0.0165064072729321 0.376625557805223 -0.660782442474909 -0.531540473766246 -0.0608315922939571 -0.0472455592157299 0.0191396026331023 -0.232137441206544 -0.966196284896382 0.134883691901285 -0.222277882298655 -0.149597000270863 0.745585616839595 -0.0383928275989544 -0.202707531207835 -0.412723180320642 -1.18478963671701 -0.571002447939854 1.17711366013914 0.229121043452195 -0.202646848580824 -0.786782857232194 0.472634721618979 0.588386136095931 -0.153381274892239 0.412175365471414 0.811920095400429 -0.359283926745008 -0.852431032738490 -0.825667145840529 -0.0929706266046018 -0.822858122919112 -0.428291747467533 -0.718724754889760 0.340813674583265 0.423455590949479 -0.109960583078746 -0.492501919249773 -0.481071648291667 -1.21595819354237 -0.389094642406054 -0.288985565670473 -0.208777521419812 0.245366148713748 -0.365685815311668 0.0226780532337306 0.113746436402900 -0.526857065237323 -0.595857513545213 0.621547696271378 0.658883892123582 -0.326039124388028 -0.943087244167963 -0.381903696549427 -0.664492204807653 -0.783192543588313 -0.929528201132129 0.881632909279225 0.262657554324203 0.271115160148668 -0.523774317706076 -0.126363587244478 -0.158630395774486 -0.894643068870374 0.835821691162164 0.133350934827885 -0.777230173300185 -0.689381958751085 0.0964606904858450 -0.0924352850563469 -0.228836229325635 -0.0471088321057289 -0.148534882558761 0.00680748428970651 -0.0904202257326450 -0.0390038194380959 -0.0776771502428473 -0.0237743201279908 -0.176064283352238 -0.185685834187720 -0.0940733097311012 -0.119887653840039 -0.227626614856232 -0.0935098807255286 -0.182755982908178 -0.0726928690290323 -0.198455803766966 -0.184295511564260 -0.149992572530827 -0.0900490129939835 -0.146555681930961 0.0152856902209183 -0.116452570381333 0.0892126951146533 -0.218744224760999 -0.0616435364622040 -0.365047368226522 -0.117356640801943 -0.175811229102585 -0.156483152840273 0.0526109963228082 -0.0411824850615647 -0.256553151124242 0.0183193880681779 -0.160555196242272 -0.0544727619802368 -0.0473287950426384 0.0106578652355329 -0.148151824907894 -0.183729937909487 -0.308485951704952 0.0258016998434177 -0.0991295650502310 -0.165088077855418 -0.161814664166459 -0.153007305023111 -0.197260129575536 -0.151605990138896 -0.0285406376699650 -0.323975423623357 -0.159377387734356 -0.285516394744497 -0.0372521001356831 -0.236842462932919 -0.0758762069095328 -0.175004915412777 -0.0414222913968707 -0.0617586975738893 -0.114308084639330 -0.0473221444420651 -0.0433035389519221 0.0610580113455319 -0.184560152990984 -0.131949526223987 -0.207794685138947 -0.0339009430700937 -0.0820795562343313 -0.0946410270123633 -0.273051336259596 -0.105769587399881 -0.0746451589021700 -0.172693523567827 -0.0259426769309960 -0.0608541590005483 -0.164442732377921 -0.0413392607765214 -0.174001119672507 -0.00889901579873507 -0.0644836392817138 -0.251210013375779 -0.165565521361165 -0.183744303242306 -0.240453693451172 -0.236312790010235 -0.00854832323864874 -0.0414872937839892 -0.159772880720075 -0.0524327328512349 -0.211867612031187 -0.118297751007985 -0.130186008637802 -0.0848396865066409 0.0881968948921287 -0.125912665329193 0.0158750829392288 -0.124113780324544 -0.238823538731901 -0.141307702837561 -0.126484732925527 -0.0694251418762830 -0.165923033025356 -0.229617825904663 -0.0357032124734620 0.0414739941268126 -0.0701828988133134 -0.0176078655326594 -0.183480470024397 -0.163756961966246 -0.125544343601717 -0.0302871470146881 -0.245298934440480 -0.179954374678188 -0.151382972313920 -0.00366061627348011 -0.0684566816811394 -0.00838060664307773 -0.292618193347981 -0.0682859490556172 0.0313039966402337 -0.235213230452720 -0.0892045106286350 -0.0347850725932503 -0.177851688527546 -0.0417828875009161 -0.140741453433891 -0.0693085869566827 -0.126930843703831 -0.133972697059133 -0.0822988457094360 -0.0354756881791623 0.0779129916196022 -0.152197395610679 -0.140827824461790 -0.0976606233947884 -0.254943639503372 -0.249328428926630 -0.0234145942045356 -0.169137772121526 -0.114997622353376 -0.0437962601636925 -0.0458672179981141 -0.128418625959619 -0.102206246400880 -0.0630000102430766 -0.118585387210062 -0.0450376442932460 -0.0882967197155461 0.0988772862968392 -0.229634825737975 -0.242230683289767 -0.200700057778656 -0.0350084318375152 0.254296926505692 -0.233295021675806 0.137356022436977 -0.138742423102596 0.199721545862664 0.308904240093946 -0.0434924392046432 -0.386039188134256 -0.174449020624629 0.240227113693530 0.213901698683104 -0.101149720042981 0.191694160512637 -0.128101318644620 -0.0265148438457634 0.212720249446150 -0.0657267875361839 -0.202809205343434 -0.505009978297812 0.360488639002860 0.104135384081332 0.246990927241088 0.115838614087625 -0.0491205311266668 -0.0630073582399094 -0.175674038000615 0.171149928129452 -0.0495219261930774 -0.0328020827472455 -0.0899088060354034 0.278308404795315 0.461047267876498 -0.171081963070004 -0.122470610540111 -9.59148543696373e-06 -0.243343998562539 -0.233326903421209 -0.272268459769506 0.0776278964712452 -0.0943521699579730 -0.0664862400922907 -0.151788759438534 0.407634941810352 -0.0506279638054281 0.485223715039904 -0.209663137041750 -0.412111850498493 -0.208346263950868 -0.105642638274913 -0.229285104111972 0.135847051827783 -0.0978466425261519 0.0393374523349774 -0.0914785722513938 -0.0323425941488214 0.303471598193248 0.315554513550331 -0.252988698311534 -0.0801670203007290 -0.0242926292857699 -0.144721076146456 -0.254713860025387 -0.0501108579854068 -0.184402612152951 -0.291635597723487 0.158000926207425 -0.115501831396129 -0.00649906759300519 -0.128218169516186 -0.152273509750146 -0.0965013695469431 -0.240097815438936 0.0320213843786604 0.0301005437419324 -0.216443229881455 -0.0162455173797295 0.350458854842336 0.0679536960508076 -0.305973106307615 -0.0262657101432401 0.0299094714047101 -0.241218695173137 -0.00761232390409365 -0.120609139400967 0.185342245411223 -0.335201190647632 -0.0394625674422081 0.190615292854666 -0.236397348398384 -0.226445591948672 0.192067494945563 0.00480825468555363 -0.349559717814805 0.110744236683874 -0.174877371509303 0.0515016849369625 0.353776259925885 0.0929281219497878 -0.182057417715018 0.0636827583930524 -0.102888006849312 0.103344228973191 0.418447045733693 0.289072332419521 -0.0510428037224560 -0.222291659427259 -0.240550598815443 0.144247626283599 -0.292408730249781 -0.207724120782671 -0.0667230537127164 0.275384369476310 -0.191441420357211 -0.128579322340632 -0.0994690303954277 -0.570840398964939 -0.168719416822828 -0.0191598872685932 -0.191622441864940 0.0925260760015021 0.0847659155926258 -0.286926098850162 -0.0412925602029428 0.0536409579224945 -0.00672309266473727 -0.418233171735874 -0.234617895743118 0.428846105751233 0.250691762040644 -0.202069889872867 -0.222946500573737 0.0392061568732252 0.0156632706820944 0.0541748761902127 -0.249201324408481 0.131087176826344 0.223299370290583 -0.242184288024971 0.125333716902194 0.161669147379025 -0.0778338571507467 -0.159747450998538 0.197776013955809 -0.375166075545837 -0.370399197502740 -0.276533707169377 -0.459803072605369 -0.219654464466606 -0.568671287188026 -0.384287179381042 0.209385164402695 -0.521035324480848 -0.0953472494273367 -0.546417099624351 -0.231469287146686 -0.337596287696318 -0.561202168622470 -0.357595667680558 -0.618656729030157 -0.264298872639442 0.177894142130171 -0.445152202929844 -0.0402536652943404 -0.424500836406001 -0.0852579180792188 -0.493212498888046 -0.196191540904380 -0.610789369178271 -0.577142055301390 -0.134614890623923 -0.501741627587840 -0.514467582230548 -0.00417132446718533 -0.508520973061783 -0.351679168730255 0.0659962120902199 -0.594154340317296 -0.149893647608847 0.151576051032618 -0.491642785540977 -0.652633475211872 -0.347233895514030 -0.323419752707671 -0.245134957426205 -0.615251392874928 -0.278791592875786 -0.508196386214209 -0.0713539971316348 0.0794315935719405 -0.248327530020054 -0.190784912152805 0.0435498193343836 -0.158915379929532 -0.519205993182220 -0.177722328343670 -0.528403758071199 -0.307952808048867 -0.396487781489275 -0.170696648277138 -0.386875030710185 0.0594973425159309 -0.470107721478153 -0.451995949557588 -0.317902386069949 -0.171829193776808 0.173326388426737 -0.335098008541482 -0.452964495712573 -0.502973143193711 -0.317631847086794 -0.362367805487084 -0.602410507448978 -0.00745212470729383 -0.298993189015948 0.165593319759339 -0.0317142997157376 -0.377594993790157 -0.374021939178551 -0.650659164420964 -0.349705948482865 -0.164433269155585 -0.473360929031773 -0.137197986531160 -0.395071876759548 -0.343511343807411 -0.264026336640877 -0.125269627863907 -0.207235876607839 -0.523134002761859 -0.382187224394901 -0.663514329792649 -0.392341326036177 -0.0681718717953854 -0.588236458570236 -0.367177375339104 -0.179618894305478 -0.429498481686355 -0.00131301550313366 -0.496378541466249 -0.305858658578423 -0.0289157853272115 -0.359830537956462 -0.528140862543620 -0.321232710782496 -0.431170443450044 -0.570278336786442 -0.277536387283919 -0.153771164795675 -0.487274644461332 -0.507694304147845 -0.00158260799640418 -0.416670615295887 -0.197898629118067 -0.0499878714821439 0.00657437397489655 -0.400188628489849 -0.200448074549076 -0.724394578845029 -0.546211639261637 -0.561227433659257 -0.621103709964072 -0.432208247594999 -0.258651921734892 -0.577522051144858 -0.528568770153887 -0.644649854875818 -0.445165741836690 -0.444672292220065 -0.655420003398170 -0.317156980366368 -0.539650454651558 -0.454313479615865 -0.468213869971017 -0.473639023176172 -0.259417688359598 -0.420750231864512 -0.350227848343476 -0.221507953570465 -0.0285948325101970 -0.466334508910604 -0.390700556881948 -0.533132160790700 -0.463182377679899 -0.479343047286903 -0.532907859166543 -0.0696985857998272 -0.488406892665337 -0.276668770995022 -0.204693210359770 -0.530632614554835 -0.487017397236873 -0.497729891575259 -0.0549813245308765 -0.389070153524370 -0.434938703704533 -0.430398133632897 -0.899657556877758 -0.319992655475258 -0.119760888009514 0.398176736510559 -0.0163558986048489 -0.179166726541409 0.126937825766019 -0.699464123811409 -0.261331730395955 0.795141091880435 -0.150530000962527 -0.161937744163993 -0.651786960657536 0.273068466375851 -0.00347394038027732 -0.683260569291909 0.270149703518628 0.259366788516042 -0.215485382876117 -0.775682405040256 0.721035169091573 -0.333262136634855 -0.887444265042528 0.657481604480978 -0.526254719495951 -0.480677991949436 0.403486024447276 -0.878507149471693 -0.201133310692475 0.170884022035624 -0.639623049151502 -0.190923923732710 0.170130706067350 -0.811263792411607 -0.511792704216644 -0.167611783456231 -0.498667168195897 0.104087649930461 -0.826654706484072 -0.562290138154125 -0.516844548343705 -0.182937685228616 0.0371583937539221 -0.153844032802771 0.102834725918649 -0.196112311257015 -0.0912838166740519 -0.511256672787370 0.528651215860851 -0.526015569753842 -0.00913732347549724 -0.466992448598493 -0.698855586994312 -0.395818264348355 0.0491821984094857 -0.124290615247740 -0.364523691136566 -0.707421458088486 -0.464542605895454 -0.0865257124352589 -0.0381351950444892 -0.608956858181907 -0.533153278068666 -0.581127248993771 -0.264651112788546 -0.841277534489159 -0.352886911023066 -0.863665572089578 0.455107134794679 0.554768808540219 -0.0870697220016909 -0.424368408607986 -0.520360110390248 0.325976224949196 0.121318865794528 -0.361893728888474 0.473869703941452 -0.521529976152881 0.128962128795575 0.0804615107107606 0.733415542731686 -0.549142266201616 -0.952442883333970 0.131563759271338 -0.939519780620840 0.126130578078267 0.103374984157104 -0.184316983500104 0.0745579816845567 -0.236095945024605 0.148887301951764 0.0389629629148816 -0.275764243759859 -0.597639861721476 0.0298787669308418 -0.479553704255723 -0.582062379088177 -0.768680800714129 -0.696758624392312 -0.799819118562951 0.396800387883234 0.0230379526299403 -0.663245997344491 -0.353719297090409 0.258628374273445 -0.245618296727119 0.00605031901769732 -0.483861308832634 0.770000238781704 -0.485873062871572 0.354938326859825 -0.891030430113801 0.215017685337814 -0.968383162314091 -0.799984743693542 -0.349497768409072 0.383242499956172 -0.959322189620828 -0.692456438742920 -0.226325624075511 -0.416913344564839 -0.184068089939068 0.188783956241650 0.165178652289105 -0.434245394889743 -0.122179976071731 -0.384139787060922 -0.126936424517656 0.134546538572267 -0.272170469560837 -0.387788780681091 0.000290180724433244 -0.0424804366956247 -0.0761310728234446 -0.532115907183569 -0.934279176477362 -0.373923680316067 -0.523229641009655 -0.356346592235353 0.0852620973888767 0.00651134549709873 -0.813986102845750 -0.680405276503435 -0.559330926918910 -0.333602737256101 -0.500726889966392 0.165905904689399 -0.736318450141140 -0.310232894557418 -0.311900998110516 0.614810164337620 0.640488753203155 0.350957158616701 0.0750133965410069 1.49380845431532 0.554091566130811 1.19227108876612 1.05762216790039 1.12621401679414 1.29062103840646 0.626985151470265 1.67643462706337 0.198909004372889 0.846990223940662 1.83686761239553 0.0548162453124360 0.812931243624589 0.550519422437625 1.64643146388840 0.271178742043651 -0.0533616374054236 -0.251798664554799 -0.583536848703561 0.537271853943199 1.12264813275425 0.429445903768270 1.27495155658242 0.561076442483592 0.147835425746771 0.878980893323332 0.181467507395042 0.215850656967032 1.85333444746964 0.746420051124205 -0.0849412881843466 0.860987758476704 0.142996917971461 0.892021295217749 1.11999048859158 1.03229390506925 0.152045146480822 1.37955154866368 0.899179883869128 0.0744151687957631 0.850057822553873 1.07895875501690 0.952933911657511 0.557643080090092 0.460733172283965 0.308081020957196 0.169455419414691 0.610079939934512 1.58996317552771 0.856853956695646 0.682169017031036 1.01707633404853 0.195100419756125 0.745554815590452 1.64658153790007 1.52489390068622 1.54562488101793 0.151950577683268 0.596456522762409 0.731344824312093 0.709786368026249 -0.0531588114253469 0.854724874606897 0.863312205548590 1.79124369126269 1.51235495058537 0.190859283949246 0.848532188163139 0.119529266394199 -0.0791661048006896 1.46534357006223 0.424046015420299 0.786480448344212 0.162811948074073 -0.335259874871370 0.671697003345128 0.928640783503602 1.12651373004365 0.522806490344926 0.406532808917811 0.335048190822531 0.696083778914301 1.64739115678255 0.638004070807918 0.750367988854973 0.467391731399298 -0.896598574204258 1.06979980964667 1.05610159144570 0.495564554712144 1.23669107952362 1.14502183041386 0.913351039487943 -0.132207956974219 0.0752268373478554 -0.181284738107603 0.667285367189597 1.94284164872518 0.541350587590443 0.403544427649994 1.62509610117315 0.423614431875436 0.291343082293177 1.05338764551029 1.34207456067155 -0.00986503302723787 0.172779261005983 0.882065044661990 1.08308286273273 0.476624766192317 0.490437218347784 -0.501988887292656 0.962739062868173 1.22544873807693 0.888558584056547 0.424324642907217 -0.158955757023100 -0.387381592226238 0.330896823304025 0.235692680501032 0.759387196213191 0.0319648679495064 0.168961071253290 0.169253096147131 0.694361237725166 0.482319522977213 0.0346637445248832 1.53238439394423 1.36371163929225 0.156469552612565 -0.395857601214993 0.295472073022246 0.248417812686697 0.528581846365744 -0.0253736895110109 0.669219885383157 0.0786073041815176 0.991715889437210 0.136896760817326 0.612725477090191 0.0797418105097099 0.233484972560970 1.54421320732574 0.176450518445504 0.152439564169921 0.528481827147855 -0.0252174341678425 0.0834995556553039 0.0740584547556512 -0.578516012111807 -0.404686518584570 -0.0260114069541611 -0.201317745394670 0.0355294836265590 -0.217629636984714 -0.581501094524312 0.520225002693219 -0.264427778134159 0.294357238065608 -0.0645698663920941 -0.579504905664179 -0.724150129605427 -0.130845138417507 -0.140008584356870 -0.844867497277117 0.00779478464753920 -0.325875824210010 -0.657389324524483 -0.803885197526851 -0.143010030242283 -0.0431882688944275 0.251486614020222 -0.246055456345257 0.148154990055515 0.242202339954484 -0.183944971916063 0.227540671354119 -0.853701828919346 -0.343354422730587 0.0527770429337134 -0.799213026254565 0.0755198711642813 -0.280302142381607 -0.195220070283604 -0.173241270646352 0.0551434899322057 -0.457624875100654 -0.449044911557752 -0.137414693602850 -0.584479563219997 -0.271424783945819 -0.636661650446508 -0.657764633713895 -0.483690265881417 -0.545980126478150 -0.332781123031824 0.159353270785825 -1.04110163828268 0.0851314545076532 -0.258187222287517 -0.689786004092489 -0.227608747284163 0.145797674450747 -0.391944328135529 -0.353049443677663 -0.418991185422086 -0.414844977064047 0.0348089439735823 -0.450257290917955 -0.118806067012407 0.280339999415613 0.123956287344023 0.0548031332071980 -0.0985694206474815 -0.150639793175642 -0.262643165952811 -0.326324692408222 -0.145552820231788 -0.0736186023918530 0.501454880357478 -0.627130041241308 -0.228120608891853 -0.152254282017286 -0.200984664214867 -0.741540237093172 -0.531735564102430 -0.427895427650478 -0.0513666324016643 -0.653143900750116 -0.0436844837848648 -0.876060354250059 -1.05286834750765 -0.528876034339312 -0.541605785797774 -0.596892864006761 -0.218995792989184 -0.666822157912343 -0.398904909817729 -0.397419520606963 -0.617843711176665 -0.587383278346398 -0.718102735945251 -0.200212200048809 -0.297675653260924 -0.747712765302613 -0.395179398421468 -0.659716417809203 -0.518747788960272 0.181438805780477 -0.682584836214042 -0.493160937567297 0.204400250816729 -0.807357850267088 -0.387993944840913 -0.0903325468665706 -0.677623454943077 -0.413599973071738 -0.394684349115617 -0.227741576855814 -0.219211899895591 -0.508999437455431 -0.452886502883555 -0.0691292503888653 -0.134937526186932 -0.0379141815384838 -0.767936744166927 -1.01862515427400 -0.796883431905335 -0.0863331440799249 -0.325168865766664 -0.595874530132573 0.589892991007855 -0.506577153244083 -0.443804930654633 -0.486732678161051 -0.942832773894895 -0.469867146217139 -0.318458293079717 -0.342319202128143 -0.433780539211596 -0.903868073047027 -0.385272034039733 -0.248850377505188 -0.767362035296693 -0.605570411860828 0.349510324065316 -0.568945807011894 0.123555005681237 -0.849154442159623 -0.706853443478320 0.0130154688857865 -0.713287860786010 -0.0102514599910696 0.168088501167082 -0.681484331053175 -0.832329394199159 -0.0241182217875614 -0.377394604224526 0.154460446911858 0.0160210997672621 0.585947607743037 0.246159987434852 -0.431127434240817 0.00232881830202568 0.445544119453552 0.566474911552400 0.555200871040958 -0.0410368098079595 0.112219674245451 0.706672395280114 0.226493767119467 -0.170560757195291 0.542974299603890 0.291594705574089 -0.152606722801439 0.564801276431377 0.363229831464041 -0.356633637041915 -0.777860742901614 0.517719686379142 -0.328717204317096 0.411968220166807 0.0895396460648697 0.226260730832075 0.136280099523824 0.297507091230384 -0.245916726199580 -0.338076913303194 0.248588383577788 0.141117440598020 0.353378264739168 0.279614863870681 -0.0985862959284160 0.264997358599682 0.228612799786657 0.0877213333165488 -0.318447333597341 0.276062929755399 0.308169434376385 -0.328550673480677 0.0616917728412721 -0.217739573166739 0.363949187270612 -0.124703627781690 0.620411190485820 -0.105446660613295 -0.177423621972610 -0.358049235231759 -0.131167818973597 -0.160992529664862 0.0713864561440250 0.323948088170714 0.0559646521296810 -0.421211944574570 -0.254180402475266 0.385949674634697 0.0163059526138141 0.301140673869562 -0.249858798170994 0.250271947724737 0.144372942689523 -0.108961389478121 0.258112302159007 -0.166992961634774 0.478756702724937 0.281217764457094 0.00777856212387777 0.155111224181537 -0.0711475277170823 0.0133539925257658 -0.00150184911454305 -0.00188003166587777 0.324631108289165 -0.282101671796831 0.0124884909839074 -0.445348631571169 0.516628341573332 0.266517093896294 -0.755402929850610 0.183545402543388 0.0114273490631929 -0.910147679255705 -0.318723969767827 -0.126813566189716 0.0985175077541829 -0.129418289778898 0.0831161937171946 0.395393665129852 -0.239783244315408 -0.359739192830703 0.332515081552224 -0.360109307323148 -0.0763540446038818 -0.274483689041787 -0.876172189364773 -0.200585072063833 0.439129702597266 -0.152545128013023 0.223084981955238 -0.279088971279543 0.557925442610585 0.240541979350391 0.483800324246606 0.128605120336159 0.501289341092822 -0.397625938693263 -0.306174849186952 0.0929755270521793 -0.392081245124403 -0.120378851464091 -0.278079357130003 0.270833060325569 -0.513275213283396 0.163571159029402 0.0355807752645265 -0.395384139801436 -0.364599282228640 -0.394231643799535 0.338194741874475 -0.489169997592471 -0.130574718619864 0.0816113687608619 -0.313961572173955 -0.100044803591838 -0.0845794383039024 -0.257132961551955 -0.455276789739637 0.467572899547927 0.282998633385958 -0.0556923413649769 -0.125358571071413 -0.257291549974967 -0.238918217536611 -0.333069283029860 -0.280707915790977 0.282687405817680 0.250460984031778 0.0288002029896156 -0.481916063798563 -0.261871957434806 0.445345410232894 -0.399036007354582 0.504388481176851 -0.354156520106752 -0.183259650683703 -0.255888148022856 -0.249079402740510 -0.0365960600446677 0.0673875023798984 -0.0606290201052329 0.319363143479442 -0.0769943057142113 0.0152155248503745 0.0432248228188472 -0.00724832721858815 0.276904413174586 0.126925371458655 -0.258242817082437 -0.332190650392802 0.0290772634601133 0.0735858799466063 -0.0179809546662917 -0.0499024864633438 -0.286403537623753 0.0274261551263037 0.0554781362571451 0.0238475386093737 -0.154988128945656 -0.321609459640377 0.255491965607262 -0.0152384682918844 0.129883865202116 -0.0447500879307261 -0.0830707689176543 -0.109833424938913 -0.117952493732555 -0.0210186515870072 0.00133155699380222 0.135518813333589 -0.314850860325184 0.216849959512357 0.0264745774201691 -0.0249790321913973 0.175283437959772 -0.260790187751285 -0.131072277702991 -0.253581906601761 -0.154445603176180 0.148611528795136 0.170432825689821 0.0438667777660120 -0.00701243903346756 0.266764490310823 -0.137711476187837 0.250099644122476 -0.378158416752304 -0.398214220495634 0.294256036900664 -0.220410724502429 -0.0125148798342991 0.203034869789558 -0.139181878115140 -0.245920067339233 -0.147391094156118 -0.00328686584309451 0.247580507364003 0.0149407294197548 -0.279628295684638 -0.329363278222921 0.0773895898815574 -0.248640025495638 -0.370560379959317 0.0661646507163187 -0.186420759591849 -0.0214174600596901 -0.0217439759251934 0.00543835096997527 0.145548732476328 0.00581115708412286 -0.107604155799276 0.165746698401833 -0.190903148843091 -0.00774386888866540 -0.190883874464674 -0.0623030078446051 -0.165064228036899 0.285252273119678 0.251959172557956 -0.201396826796244 0.203273279683250 -0.104505545768104 -0.330798636827021 -0.424392926178194 -0.188684876227466 0.0483516948222733 -0.128152038175318 -0.0525920552468433 0.121071718304716 0.105537137331711 0.177551081442439 0.380468982507870 0.0779573594241476 -0.123648598333724 0.105317640557076 -0.286974718655778 -0.140780792549822 0.228385928016578 0.133396702298423 -0.136295378101323 -0.161055971844312 -0.0562689049985944 -0.0160016879903339 0.210478863869265 0.108377485853541 0.184353075155617 0.00900976927690883 0.0474854578134117 -0.0608075408452679 -0.195819016087724 -0.209462934074368 -0.400879344311933 -0.309110355861430 -0.213047124292013 -0.286707348312278 -0.0914131767068318 -0.360269609763506 -0.0146226083952769 -0.0476802308613052 0.0195205484830533 -0.0147518103639601 0.0629028723771403 -0.233728123564014 -0.0392450605191516 0.0939401677558648 0.0359783032810302 -0.135287675078583 -0.130034016050247 0.443504646039141 0.167563991954575 -0.0229690640548589 -0.0885770404767316 -0.233517038350895 -0.143551041483075 -0.0395197706707783 -0.137325908609364 0.0316175345619793 0.189646527980012 -0.179858411822786 -0.247312372262897 -0.132420812432639 -0.210688840394053 -0.156536851709730 0.0406338336473059 -0.566210211379525 -0.0805559549158179 -0.156414910859904 -0.279424406729902 0.00232819463140614 0.0247210845300939 -0.00411355043241820 0.571694255959094 -0.157991195022839 -0.0706134144590910 -0.295055172253487 0.138163110463391 0.213210782542534 0.252708181587390 -0.244290932140244 -0.202833961048512 -0.0408544176519118 0.0380994908867431 -0.440511863391966 0.304639660853270 -0.0474982401969747 -0.143572715570350 -0.0564583271121821 -0.210495918813568 -0.477183962964513 -0.931813076760475 0.383750339618669 -0.501399970559704 -0.247782167926619 0.332376816451606 -0.203556651373567 -0.111119950857083 0.476319689817706 -0.346016305157297 -0.239445428160824 0.231577869056999 0.0414576742646168 -0.215054509211980 -0.0445936890905892 -0.453006409975354 0.286230145502284 -0.320102520419683 -0.345337432369186 -0.424572492744268 0.406300887941751 0.442941412295977 -0.403474935987761 -0.102498897781320 -0.381358829905774 -0.148600573534733 -0.389697275817184 0.204444726834869 -0.512652226314387 0.0438063053987341 -0.0562048682839954 -0.240052255422369 -0.309459916170016 -0.0483098836568659 0.0359330502583510 0.281535753646187 -0.144080172884860 -0.173360580422555 0.0895470298272343 -0.0318607072012341 -0.163329648803340 -0.408266922544370 -0.126863751370702 -0.125760799676613 -0.617911931476909 0.175245362067971 -0.220209882089838 0.298755125405445 0.397977608899525 -0.191552514212733 0.0369216322108081 -0.135057795269557 -0.0630008278830594 0.0599450439755986 -0.0124268246221147 0.0228787713103335 -0.550393646439239 -0.525105436821011 0.0962987785726313 0.219251508103362 -0.00242675739445716 -0.168440718568215 0.196801630914799 -0.481134157687379 -0.479205766505650 -0.0761927442695566 -0.219030954014947 -0.173798249991477 -0.0297299224875406 -0.278430379833083 -0.0399514693311232 -0.589034333816500 -0.406390639138748 0.402268900260932 -0.457314898336110 -0.224547659722961 -0.317079625107729 -1.03459680496424 -0.691196520158063 0.259713682944403 -0.0829334795690346 0.0375373611335903 -0.386624429333573 0.256744905023816 0.206735136941591 -0.0862164554847862 0.0263491539291106 0.464491444124927 -0.244436476162537 -0.472201419869469 -0.598393239390827 -0.0392027051427860 -0.451280045516916 -0.191816617782583 -0.280226286438790 -0.106965061648920 0.0950900601199564 -0.329874880713215 -0.245256544570321 -0.229568299932790 -0.594605226380774 -0.185374971716159 -0.425810454651682 -0.424839680508190 0.0109399331453530 -0.109705318682480 -0.0952214669832620 -0.0238448991567902 -0.687220819343111 -0.422118341013701 -0.0653451675329335 0.106442192493074 -0.206358766983864 -0.482629352035448 -0.590986591261122 -0.342526745634558 -0.239710143644855 -0.416428070633935 0.106773095060773 -0.0885342060295502 -0.0329193103815116 -0.317749334939830 -0.499933574698348 0.00984648788117601 -0.420318868413562 0.251631580566147 -0.126975197708319 -0.714102126304002 -0.114303037545174 0.0904247472638217 0.0222796153613188 -0.0804762608343989 -0.259139415986440 -0.0280171852676745 -0.107083118570378 -0.126777930580062 -0.127831999392373 -0.188011398208404 -0.125225979873179 -0.0324166007391103 -0.0394227975446203 -0.120142457316455 -0.0440383002434790 -0.162462498492177 -0.249847176188016 -0.0704504796303754 -0.133046093907262 -0.00660402874665049 -0.113258963428874 -0.0366833104888482 -0.0824076420182733 -0.134090185510188 -0.0754279329170190 0.0375025903393815 -0.203493229336113 -0.181892206416923 0.101824896261445 -0.0379605541926591 0.113862213574150 -0.201674642826457 -0.180260064382974 0.0171324424477951 -0.109830084465622 0.154694266266550 -0.0157488982852391 -0.0511909200022463 -0.172647355306224 -0.0322818259465937 0.0588950890643047 -0.121250353090542 -0.0721401110611201 -0.163751837546653 -0.100752573278638 -0.0799839061782869 -0.0840540746283389 -0.142245046352642 -0.132424688271286 -0.0273580654151960 -0.190221912000476 -0.0261435437501128 -0.0413880843079613 -0.0673043618998252 -0.122071379726707 -0.181667736711875 -0.0744677064017738 -0.0979725299938187 -0.0823169598767076 0.0148445726849032 0.0929559049802237 0.0591002242421696 0.0157176909512610 -0.200535092234402 -0.0299674050988826 -0.126381468213569 -0.223204815814823 -0.0814702004907398 -0.0869339628768023 -0.206951439065913 0.00427550133043573 -0.0173068016055914 0.0400358036363060 -0.141043488465210 -0.00891386280353820 0.0381932999053395 -0.113681560989288 -0.183507583842560 -0.129723536140313 -0.0853851076604457 -0.0381465242216976 -0.0320623014548436 -0.157568520094788 -0.00733063415714975 -0.129977938679719 -0.0386337034159213 -0.284281430998315 -0.346035265853855 -0.321743967143014 -0.156740853319779 -0.232805082644067 -0.00669953994751726 0.0198969183256960 -0.110280724306924 0.0141053025115860 -0.0384743189651088 0.0949806164123464 -0.0188578155206511 -0.0476040095527302 -0.119914093272492 -0.0882567583142597 0.0598214861610590 -0.326239056022265 -0.0693631353414469 -0.106802136526771 0.0107573612362506 0.0187899162896639 -0.128120716318049 -0.168039938105063 -0.0183544506336269 -0.0398915862718301 -0.0624941592190003 -0.104979016760425 -0.117388161981293 -0.179820760304557 -0.122698692008266 -0.301536674910730 -0.143269074488072 -0.176807834607490 -0.195680007516981 0.0773901245470283 -0.0615140541994398 -0.0806019504153985 -0.372032578285505 -0.0576539295373255 -0.113576051807011 -0.145827098785901 0.00773787065343683 -0.168037481109251 -0.0863313492946056 -0.0622362780264076 0.0870463336311529 -0.141278000182600 -0.126878879428600 -0.136894852946968 -0.0722004552413105 -0.0440056149248450 -0.0814812446657958 -0.147552561014068 -0.157365294425289 -0.0642403838726366 -0.185361422087810 -0.130862130548958 -0.0813021428046954 0.0254126769277022 0.0221951924694544 -0.167700495106330 0.0379992488459664 -0.127685948911151 -0.133000930739138 0.00599901420931975 -0.226295435949285 0.0262199467840250 0.00358633629497633 -0.381632897357655 0.325057907386162 -0.167431593313651 -0.161048959327185 -0.105465120737409 0.269937114042712 0.257749625007714 0.0228516821469080 -0.00554850087898380 0.185441309720854 -0.0882772266368359 0.117128408410398 -0.651406739201863 0.157613852941468 0.455651233464648 -0.0462169763517274 -0.0375161260836263 -0.0286373452715508 -0.313461601173396 -0.649298257394624 0.0572744864614997 -0.189572026521193 -0.116492771698483 0.167006110031616 0.0727023863767130 0.457089115968280 0.0317628733041870 -0.321825541528622 -0.308073093580174 0.115198560149291 0.0621838004253965 -0.530684730078647 0.314261980707875 -0.233111279338151 0.180828863961391 0.221335362108815 -0.167486730334187 -0.357885035985471 0.0346371272565405 0.0325414892283508 -0.669748337756240 -0.163439518727601 -0.246700161924926 -0.00682268270289096 -0.170484341204442 -0.117421836054706 0.0316256376722444 0.252329254150339 -0.465565004453681 -0.0262447357920114 -0.139167473686574 0.353907099256775 0.368818752691083 -0.0436679977040797 -0.319928578847921 0.351503385551266 0.430651738095289 0.123137067550718 0.0853180975296968 -0.205051284666282 -0.00732627637500983 -0.0770690958819565 0.0361498407644714 0.0245146590200926 -0.0555682629805649 0.216417640883220 0.232883668461820 -0.368623644415877 -0.152297426242231 -0.134505868923001 -0.0107903455260537 -0.00573899983117080 -0.332577499399951 0.0872819701479351 -0.129016694003918 -0.245046563353524 -0.149500618140698 -0.147980780261879 0.0582523587381543 -0.258794489426840 -0.00814907247553755 -0.0511677505407323 -0.748074603777056 -0.000607205025101717 -0.404995934333058 -0.172052054650943 -0.269151526260128 -0.304412248422478 0.452072511153229 -0.472748690765940 -0.549172819911298 0.0405588368530375 -0.352445376019351 -0.00110102644201544 -0.555318272769387 -0.990881690577110 -0.502789157546669 -0.105045117237571 0.0725830001825205 0.101869337584874 -0.595194287866525 0.461462290857296 0.0948104453805696 0.0455391213772823 -0.0153708288579673 0.0369848121102336 -0.436297377218339 -0.265662086728327 -0.179270083122212 -0.00267566813127412 -0.0613776429127021 0.189273424200004 -0.0909585200216528 -0.0241099113376111 0.147103471255336 -0.328490594150164 -0.251727115399249 -0.380187472238296 -0.508141768964703 -0.136781925849791 -0.614226640385332 -0.668825060642648 0.0669378730541512 -0.434525404767216 -0.448708554301237 -0.0446907836299091 -0.550265599978625 -0.594928987009014 0.285385042275887 0.150507656972979 -0.315049096704396 -0.690594335561473 -0.325363563004666 -0.283112586388184 -0.259588496806560 -0.687121942480663 0.410741874869429 -0.128332573116553 0.108039948621245 -0.817229402593250 -0.577499317970488 0.201596258469447 -0.433208991204433 0.397832742489100 -0.255827455841393 -0.556076034433827 -0.297345731953712 -0.149919639041509 0.134339984980239 -0.167516724911108 -0.265669458952215 0.0368305863542822 -0.0488714778307023 -0.118014418104803 -0.115838241667094 -0.00829654798325419 -0.0737497232335340 -0.0285322716733233 -0.0611041441025976 -0.0261842523977244 -0.0430913721439907 0.00249970139575018 -0.119273381092759 -0.0106797199045601 -0.0522522976215116 -0.146940514809400 -0.119064496275985 -0.0390322602893929 -0.240418535276991 -0.0419978552555317 0.0740371043135198 -0.355407332333616 0.117817408822044 -0.0239808830035208 0.0224228650466507 -0.0421302739312857 -0.0991479861786957 -0.196079806531685 -0.244127606566181 -0.0320157295982475 0.00891161026855076 -0.121250889382960 -0.139121776864625 -0.0737831230213345 -0.128026705611863 -0.0837321129205194 -0.186962390954732 -0.147490518425181 -0.112792378852604 -0.229796856791163 0.0701987081012331 -0.144285707642833 -0.209014606667005 0.0344358438244014 -0.114372293036366 -0.0144281930044773 0.0807955411173355 -0.109088321198330 -0.110765414956901 0.0870829832656508 -0.131349949176096 -0.0783754570386191 0.130479905263988 0.0919110709794405 -0.125322934485133 0.0196170306426729 0.0237504658001670 0.0640511867846951 -0.116766346099562 0.0604261107240043 -0.0986585828428825 -0.106452376511526 -0.135405612005038 0.110396727885305 -0.0552772223932109 0.0535778243798598 0.192868715943461 -0.180957011186135 0.0188298187425519 -0.0159053113595761 -0.00744010391575596 -0.0408087568277414 -0.185907023605073 0.0979468680833157 0.0255374811220505 -0.376394146856873 -0.152319026164013 -0.0975776615035879 -0.0451260810931847 -0.165233578479257 -0.0254544238618797 -0.268509340674751 -0.0664964161269713 -0.00260155098816832 -0.264131766533772 -0.0577544507207081 -0.0571661356691297 -0.0343256399550533 0.0707717387625703 -0.180679820709087 -0.189962981683577 0.166435565724765 0.101758434103676 -0.212760456577814 0.0308594505119906 -0.198874677091464 0.0322312596226029 -0.0712910717948898 -0.130203360804776 -0.0340842304722012 0.131842106233244 -0.100924060736935 0.0420763689321693 -0.100335886859012 -0.137778629814758 -0.0523585236165203 -0.0724409270796088 0.00546688505535236 0.0761872770017156 -0.0900955612929966 -0.0515892429447725 -0.0275967548645301 -0.0932244219309838 0.0172157483435283 -0.132360563816995 -0.0602378277447927 -0.174962655302578 -0.196568035150905 -0.0837103258783176 0.170236185214900 -0.173119267460280 -0.135193330247374 0.0320730785468939 -0.0862480635678962 -0.185738641409641 0.0751226335581439 0.0707800683384253 -0.317048952222393 0.00532285954112577 -0.109130780906250 -0.0600224884869784 -0.137334187498152 -0.211129526834712 -0.174336572605941 -0.0802483437754955 0.0120602455939611 -0.280104558503623 -0.181800718748908 -0.0647915616247058 -0.298621870923191 0.0182077006926690 -0.000987357811809189 0.0104285645571856 -0.0926984711823873 -0.132433778604251 0.00932832679379689 -0.210121593097033 -0.151330079787641 0.116292003569681 0.0122772307297288 -0.177805242451746 0.226318620243780 -0.0976889824400740 -0.0121749080184241 0.100715078415866 0.259333780277543 0.172072230061878 0.118303469212468 -0.181983196891774 -0.139032851202482 0.0241463748481718 0.289278867521071 -0.236040604062613 0.208506619775334 -0.0277001483152024 0.0229012267798819 0.0523062079686785 0.0581305685068222 -0.168983706901120 -0.227079573019587 0.152375480415081 0.0804001265236179 0.142653314650480 0.00862469156293124 -0.0328687615971510 0.0284453278245792 -0.106073504008292 -0.0471075262645987 -0.259223837609825 0.0600353584589654 -0.0939579578142823 -0.162157234131767 0.261032567247976 -0.122796993020704 0.0832230821578029 -0.0687414220661358 -0.250369200398271 -0.00423078216501988 0.0552794547284068 0.116209790602404 -0.0741304694997588 0.249776618390107 -0.0946033440937496 0.000754305801451510 -0.0785107123919690 0.245568452857664 -0.287734674628138 -0.370307231862963 -0.0883298535692046 -0.0756174886086090 -0.0859582028727697 0.119970629495312 0.00720133026509381 -0.0550008996620925 -0.137818264234477 -0.0831422833342382 -0.0314522152089389 -0.153855087894946 -0.00702844347013985 0.147413416109157 0.0799356629464115 -0.00364902783187899 0.00814720079405701 -0.0175982867446342 -0.106039045167004 -0.00455671707772321 0.128805462163675 0.129343309530408 0.224600257632667 -0.0400032097036994 -0.194561405842188 0.0865601539947959 -0.0563143992501067 0.107965871784067 -0.253917484312578 0.00923379184773838 -0.110161300966331 0.215183543024269 -0.0427719621149983 -0.261139447160356 0.00111997393140846 0.0311908406752975 -0.269502087040440 0.00296833322736388 -0.168610445045584 0.0613145503094372 -0.129316754307840 -0.0172480736493667 0.0386958939598189 -0.0341913116893141 -0.253296629084206 0.0203624270618636 -0.184848509835809 -0.100102830175577 0.0448002164773363 -0.230246491547543 0.103663161547477 0.00240387147875040 0.116504278118863 -0.146920205409133 -0.0140420151517380 0.0322877552685129 -0.111383787665355 0.122520066296936 0.0474954158867282 0.120624473154906 -0.0937877925392345 0.160827916172559 0.106328027054434 -0.0356879642144186 0.0883595155195259 0.144416040786327 0.106238251927921 -0.0386471905690285 -0.105527665555857 0.0307898016156144 -0.265356783136495 0.0246831539068606 -0.0518194570678710 0.0338852300839850 -0.324539669568172 -0.0128939389136340 -0.114355766522885 -0.0821846404341950 -0.176968864957357 0.0691014010087218 -0.0116278853438784 -0.0828321771616803 0.148492175466947 -0.0259804095981908 -0.240592982627732 -0.198251528794750 -0.0709654239898715 -0.122788727189342 -0.151295781092210 -0.325062310645069 -0.0747068596123811 -0.100343701226011 -0.112726941428725 -0.0761818028216098 -0.0972089771710030 -0.0746506997933809 -0.145964025209283 0.143376674286897 -0.116472414206232 -0.181618664910771 0.135535079127652 -0.393129792357228 -0.270529526545669 -0.155177909313792 0.223178419957490 0.0790151271522634 -0.0746457898247698 -0.00584196756408851 0.237662404992118 0.411067883074265 0.582312672279371 -0.0911416391513566 -0.304940397002115 -0.469981709589283 0.369937287258886 -0.0656200185743006 -0.212476461776226 0.102655858425326 0.0642817506823870 -0.196111316322423 0.139775665695110 0.411150979696426 -0.00498791380437411 0.281929594499467 0.340006927277245 -0.136377005391681 -0.0868800419763289 0.429037351944135 -0.0349098017684695 -0.200746908489091 -0.336620831686966 -0.257567705362250 -0.0296604734528338 -0.0365640339816885 -0.149666735889275 0.287904834643918 0.421945868982696 -0.215988067005078 -0.0682031287160581 -0.209516556997408 0.170787887385507 0.0935145173252068 0.155878999931819 0.127446816173890 0.135476547357189 0.113056328515067 -0.131388004019877 0.154477774359346 0.524833191069011 0.410209028474990 -0.202965459592798 -0.489494432757666 -0.118644454075828 -0.287954101976397 0.0223178556436576 0.400398898661863 -0.0199133691151042 0.0791193429306851 0.0113355626435886 -0.0775442453991105 -0.134192248214053 0.0363235150714340 -0.237925155148405 0.158022710384687 -0.232169396143865 -0.172497595747952 -0.333201510058395 -0.366078917147867 -0.0433665309821610 -0.385515418058266 0.329829279196131 -0.207357121375762 -0.191820810267583 -0.240424301943779 -0.446402930009672 -0.349134157617501 -0.389729448141902 0.214864877862587 -0.0989796621425681 -0.0760711367768525 -0.108673476390429 0.562084615953302 -0.164750239820523 -0.289309189484291 -0.353816847862267 -0.162626366093204 -0.0847809296550066 -0.0180861086445884 -0.242847645456241 0.111181090698268 -0.382097131802093 0.323216836023169 0.296681454444599 0.0898577750426290 -0.265207401681282 0.142844817430874 -0.111529099995555 -0.0756200114129547 0.103466612729454 0.108884182639041 0.250539239734158 0.440276639104019 0.199081114182739 -0.212696200605372 0.344899002808637 -0.109856078162360 -0.208767193313433 0.460913137389900 0.354961712453010 0.290599490895097 -0.375345934114239 0.384594564417701 -0.0988714243591053 -0.204398609512302 -0.0410451370634007 -0.221289140890853 0.394550975498825 -0.385887029773452 -0.0639202310326409 -0.0755070258119662 -0.0378732627688715 -0.246889938691225 0.250956544814324 -0.212506463492820 0.600378700891214 -0.0531834845324993 -0.586616833258898 -0.00662989808369625 0.0227864176360809 -0.147668104434365 0.0369500682215973 -0.144660659401327 -0.0387631469113385 0.0859016821951017 -0.531168903574060 0.158750863902815 0.154521293237213 0.109020229710488 0.0376066182221579 -0.164377905338104 -0.0600276501923880 0.282521339862452 -0.157204787933838 0.228137603284089 -0.0962016693499323 0.0369285613565889 0.212152607272287 0.378042820002941 -0.0399394567705153 -0.330050841419071 -0.0922595015074231 0.0852480019347019 -0.0996448187555894 -0.245784084996282 -0.235300051858065 -0.0815796834534172 -0.0957546362112080 -0.0795751531626552 -0.0700077041731204 -0.0499436072489655 -0.156557188287322 -0.150360671856159 0.00295720232403116 -0.170049243079986 -0.0323043178738112 -0.0180548195958879 0.0178027234981567 -0.161339334281853 -0.105798574340485 -0.122736723836676 -0.185937620598224 -0.136840462088549 0.111423294526913 -0.288105160929378 0.119693876283756 -0.102498420997782 -0.171177157722684 -0.360398686522070 -0.265694421833823 -0.00465551147970845 -0.158877352215490 -0.115040824411258 -0.0539843004032972 -0.250260247454807 -0.140357443440474 -0.102621120172593 -0.209569104593391 -0.104372209064768 -0.0978623771359648 0.00456679789778800 -0.166909300303962 -0.0385635542649882 -0.0846408372153917 -0.0779051900544931 -0.242802096411761 -0.0715295108151828 -0.180478200322120 -0.121786018766224 -0.114502209149463 -0.0758407724342174 -0.0947369995108108 -0.0860878240097101 -0.173576108319125 -0.0237748827620857 -0.0168134424965631 -0.0772650105202486 -0.129355117726394 -0.203952434481106 -0.166756183383133 -0.0665832527043223 -0.0569192318722391 -0.0255653047637462 -0.229048122453204 -0.0414260084144553 -0.0939199140465066 -0.217197240441618 0.0123779857329642 -0.278240713333564 0.0679924779194124 -0.0787475251415735 -0.190876423217071 -0.130686157182391 -0.196811991487929 -0.100009290142344 -0.0393144257366334 0.0275227736676701 -0.0894861622835104 0.0234056218323260 -0.120862422743855 -0.190331264283670 -0.0846816380319317 -0.0566830743206559 -0.234793341599874 -0.175021991268737 -0.106869370144737 -0.205426899108555 0.0159019884496317 -0.165122349000147 0.0452912236733239 -0.172313446794008 -0.0918652092992107 -0.216117887402675 -0.146093867351769 -0.0567842496496475 -0.134984146722278 -0.0525835961144374 -0.0820726149327704 -0.134716783960896 -0.133859787413049 -0.135602987778457 -0.247245638301893 -0.0168249074462136 -0.108335899116908 -0.233092880576505 -0.138929566461034 -0.123706977463115 -0.164364395400086 -0.0880365092710460 -0.0291676292090060 -0.215041569133543 -0.165353889248914 -0.201791509643452 -0.0651683762891972 -0.0627042235216347 -0.0671606980565926 -0.133110543285952 0.0800053527792615 -0.128676550903574 -0.317756314831260 -0.0813927155606046 -0.156723358136374 -0.129980268209814 -0.156833750633691 -0.0412287861799490 0.0205273125264801 -0.116341254242713 -0.147021712417611 -0.0952331768005356 -0.0971376126868015 0.0721203029741011 -0.0734296119498382 0.0944077133836614 -0.00931668315469918 -0.0399910813788513 -0.0868039245120479 -0.0380847123934908 -0.344755422653861 -0.0790250271591305 -0.185508439245675 -0.175263348199103 -0.185539971641486 -0.131306488382953 -0.192262188979184 -0.181070635893178 -0.279410390418480 -0.0948645525733924 -0.220041963659877 0.00590660439445485 -0.0884146414091873 -0.291377753113404 -0.154882308659206 -0.0164250703781100 -0.0214001750469519 -0.108791418331640 0.0666521072690727 -0.142448735456646 -0.240203162767328 -0.143230988554582 -0.0863203703677121 -0.107685285668581 -0.0571577525400774 0.153233994105764 -0.288293584827056 0.00154675183903298 -0.00201166898990733 -0.177923803238117 -0.0950681338684567 0.0673894027348319 -0.0308741560524340 -0.109745963156961 0.0791557360063366 0.0918013009410103 -0.0847195867659613 0.0862781801979881 -0.000652904158268883 -0.0674761252182698 0.201405818726347 -0.0956849250235436 -0.0151862726953783 0.0144100658864605 -0.0687809070092537 -0.177988579453333 -0.162658939188730 -0.145209136065207 -0.0299207812935685 -0.0150832781310852 -0.00137373532862543 0.0203557850497823 -0.196984123238992 0.111297530045972 0.0694378992852696 -0.00924878657705110 -0.0823223345797183 -0.104217918816132 -0.132018743187119 -0.149212600251784 0.0144594125258702 0.00677386734472616 -0.112132531178787 0.0485863945425057 -0.0430739196203621 -0.146823986444772 -0.105384952203791 -0.0523994398905691 -0.247252897349415 0.197424689727598 -0.115434970953617 0.106862800398413 -0.127690129204348 -0.244968188678245 0.135918525505758 -0.0760545927218765 0.0691155393692507 -0.116685737552112 -0.0468503628946094 -0.0361693801889510 0.0751054307746835 -0.0384164722084314 0.0722937786197980 -0.109588159339524 -0.0342181894217903 -0.156722646923138 -0.0937913104749814 0.128576123293109 -0.190502848014901 -0.116713002674047 0.0226869560459256 -0.0912550718758013 0.0949169453071269 0.0312963397673013 -0.0847519314493709 -0.0102096918650483 0.172327587580963 -0.233531633166457 -0.142269872231153 -0.0316093500709216 -0.186029322193187 -0.213351262871182 0.0264069745375382 -0.143037770658631 -0.0851068163452321 0.181605473487320 0.0879173852532801 -0.111407806722239 -0.00619006796517318 -0.115689697834256 -0.244045702364562 -0.0145750384944900 -0.155558161953459 -0.0758593045507136 0.160376617559781 0.146020412190785 -0.134745508252962 0.105792182290639 -0.138376926125761 -0.0732860367739016 0.0273534244030933 0.0299440751351944 -0.0121278723364854 -0.112622825320158 -0.0920867998155779 0.0492070351953984 0.00729145093936913 -0.0276533812471569 0.0162449494396847 0.146944539960454 0.0998551039624307 -0.171833926273351 -0.132854200175885 -0.0564626088790142 -0.195368259726802 -0.272990240631020 0.0701500849983639 -0.101293261872225 0.00876251517970852 -0.117862699498570 0.0184208499907326 -0.0767131547491311 -0.0303781865244859 -0.0831526494663407 -0.0188870234276927 -0.160033141219190 -0.198064074366398 -0.113304296428154 -0.0150628444558409 -0.0448574665256485 0.0580547383123072 -0.0404376961824353 -0.146269967451309 0.0589991208629823 -0.0331902161560509 0.0173488894052082 0.0566017337647838 0.121457986411356 0.0449529655624531 0.132217307305081 -0.169730088106502 -0.136352164506244 -0.0776935225943343 -0.0686287995443595 -0.119089819419783 -0.182770230746257 -0.0874811043601822 -0.197872468078191 -0.0835193072692701 0.402126362144331 -0.115429310698133 -0.0125033256601831 -0.189850183212097 0.211904270184146 0.183812552992357 -0.00301595221618123 -0.119104841522416 -0.175873041405517 -0.176441791879096 0.0618072967492905 0.0441585389332857 0.241505584929286 -0.254535702531533 0.0839217015288108 -0.192208078533038 -0.0489840450975405 -0.304259773374749 -0.281440166951262 0.0371982374064071 -0.219335260095184 -0.201522036064587 0.0157718255317501 -0.143690996751821 -0.0474839326950147 0.112508713019865 -0.139393979665305 -0.0825019369537712 0.219984687891324 -0.104302946242335 -0.0991810973893650 0.148080823864895 -8.02996077046531e-05 -0.123380065657738 -0.0849358651467361 0.0789360570339442 -0.0265027569698239 0.0882042362629352 0.372284077415575 -0.0378705705395030 -0.0831450508685533 -0.0986163841962535 0.127239953726371 -0.159858057559267 0.0599159518993547 -0.195605431775611 0.117767481435525 -0.139589873211787 -0.119794588353508 -0.301549710231268 0.154510734297031 -0.161930751973889 -0.145990629871146 -0.0633234430422321 -0.0303246632034007 0.216084929829439 0.108118857431435 -0.0893425626737590 -0.394722829538643 -0.143524934711941 0.0242367025280715 -0.115214673023651 0.0526013599998979 -0.194051900073460 0.163182830406261 0.204307846621585 -0.113508750627360 -0.0483364924844969 -0.217219005499797 -0.0582030518805775 0.0796340140762076 -0.180698414377993 0.0652130160318182 -0.183476593715258 -0.224930852442073 -0.168009042157122 -0.0156285254487306 -0.196500757166121 -0.170460125329864 0.0890015468107212 -0.295052126953570 -0.0349729043873739 -0.0196042439823672 -0.0626892254688984 -0.0342485403871607 0.100353902447827 0.104839286376701 0.217189717774182 -0.00109503106289341 -0.208418440679256 0.120326333775543 -0.196202075092844 -0.0962365260274271 -0.178831273712133 0.0680668445987996 -0.104380484570443 -0.0617626553754892 0.109798933492502 -0.133005961522057 -0.207655886862904 0.0917619377344589 -0.107842974475193 0.0613754870486207 0.214948318295461 0.181932297193310 -0.116551256139950 0.0409428792745793 -0.0821457120186431 -0.121047689217638 -0.280248001581410 -0.236301206421607 0.0807304948940896 0.0342826427790325 0.0186549463264573 -0.105262023396626 -0.194500055264833 -0.122330027699256 -0.0878730535871424 -0.253540334081045 -0.154053897286595 -0.0357347605450249 -0.173408992615830 -0.183821893982127 -0.0510563934613705 -0.0621334338296639 -0.0559971552335092 0.0966587369121264 0.0332840681466577 0.174909323049802 -0.128894000776409 