0.133462879099344 3.67468867890282 -3.20079805202929 0.636668006165047 0.535888065684044 1.09774585507077 0.383865968908861 0.219813384796568 0.513652724150329 0.578780635112817 0.406331037832517 0.609573447987036 0.312912102821859 0.213187771450261 0.404552512237237 0.516314586638980 1.00697587369657 0.459744451841767 0.338614893833254 -0.598042422233444 0.446233512316850 0.0624132065383644 0.206849426910255 0.128696108198616 2.67798103491422 0.118351088259172 1.09500530468363 3.13064831445903 2.85917090027412 -2.09915419662666 0.980474359949246 2.18320055475506 0.919937083870349 3.79534559429520 0.0171969181496720 1.05274605428298 0.368309084625412 0.729019807219379 0.0183831678857488 0.137271587173718 0.370072818934906 1.75163986622212 2.71408574060684 -0.512710337616929 0.327137079314316 1.90548374559244 0.0172743659493457 0.103463096170746 0.511569797765895 -0.00512542017656550 0.835737608410324 0.0929768222716964 0.698572534906896 -0.0615195589978856 0.387516945050768 0.180245991188335 0.353240603112050 0.528952332058887 -5.17584596748900 1.03323578203293 1.00058807691320 5.69426578887590 0.158929125073511 2.80490452923376 0.493979029410429 0.493513864909102 0.274304401397926 1.66649812154901 2.56637626487912 3.45433349779488 0.783048396401219 0.116871751448251 2.44108697030579 0.0210321337373731 0.944173349611121 0.258038654724814 0.0632669389924917 0.485317129700334 2.09062946927092 0.471926814628902 2.56849913156666 0.568726395078639 -0.00321799208935713 -0.0856291960505398 0.325730642938512 5.41364352380097 0.351493838667997 2.24278105265463 1.38045436243203 0.153639276250607 -1.07871404146947 6.00477660534776 0.596982518636025 1.29211598399647 0.532026801069379 0.0960274095464776 0.132844631788317 0.220960968420131 -0.0142701874555397 0.120752227742310 0.381584309143884 0.473654226130678 -0.775765792403777 0.0687382688023096 1.01454772639631 0.349185267634891 0.258590793112269 1.62373761210948 0.403300282839107 0.569228287392917 0.433035428787831 0.124672881086005 0.781330533341085 -2.62159783578425 6.84766402491143 7.44960788755841 0.0817570843318029 0.360370464147406 1.07906056093187 2.45820326529249 1.83373864301590 0.271008099192480 4.85277844739864 1.55977096539480 0.215677364952427 2.00950477032316 -0.0760035880591537 0.253768810282568 0.0807528773208230 0.302464995226867 1.30021951430872 0.753188496818457 0.326385824920379 0.640229181599150 0.443444753864087 1.19802245931173 2.69319596492064 2.84616265777246 0.291667278938836 -0.427429731554302 -1.66027339429460 -0.0110870661762068 2.86096242201460 -0.110044779783129 0.307707262060124 0.142279133607752 0.134174921784054 -1.88049102852010 0.451660820870530 0.743373555346851 0.119479468620014 0.0298049569851344 -1.27501810154977 -0.174529911772329 -0.0940870977247730 -0.614101284802356 -0.101074408544780 -0.0243703120537209 -0.0551246067688086 -0.346722216419677 -0.230291829121730 -0.192365270287985 -0.0455846211048813 -0.0143248607741434 0.0286395677947699 -0.139300126541116 -0.479244623921638 -0.0478143104987331 0.0435417716941616 0.0362606435858864 -0.456771642550752 0.0863760363401765 -0.240141941863240 -0.0882409945462687 -2.20724458371990 0.0906983625525135 -0.531584277668749 0.0664478898750069 -1.70971516299384 1.75891723210641 -2.50248079535130 -1.38150401544623 -0.496503993429428 -0.714329993946845 0.0299549519385144 -0.520484253312185 -0.0680526547668322 -0.203549337100913 0.270716232590594 0.0768655156931895 -0.403843105431831 -0.795311547834333 -2.62684285204953 6.25067372544485 0.200414644746459 -0.690695203835260 0.0175197467244117 -0.147875998090631 0.293734475017479 -0.202283731518039 -0.0950575965170169 -0.0784806816623885 -0.387707665908260 5.59183163046430 -0.162265635902086 -0.0751712234666537 -0.119161494163928 0.253528079670072 -0.544240435049479 -0.434249955778432 -0.232752169570624 -0.0891396328542160 0.0148080616434688 -0.925471680593861 -0.192960356141320 -0.330310452156594 -0.112722689208627 -0.669950636454041 0.253304250273512 -0.799096997528708 -0.163163334550028 0.0242758927327471 -1.62430671369347 0.280582986103860 0.177607507175368 -0.0850868151304670 0.0399516999734509 0.168899596630183 -1.59681836364369 -0.00121544026281857 -0.736042670697869 -0.282490485020451 0.0591808102435231 0.300921908257664 -0.0731546593783073 -0.162986462217181 0.139165817441609 -1.00919780227226 -0.805110539227919 0.117915168259209 1.01099080088189 -1.66641138730092 -0.0656891745388910 0.0648447967679123 -0.275050817054000 0.00851753191806497 -0.184909412789651 0.225444365153659 0.0530618916693705 0.234164192748742 0.0311287832559083 0.173153395829699 -0.134481659331601 0.0452482373333273 1.78285625750555 -0.167351304051142 -0.0506071909564001 0.0888382083601536 -0.162159383763292 -0.252199037840410 -0.116521956218914 -0.0985265523386310 -0.273556535678846 -1.66664902470282 -0.227218457131689 -0.509980628381252 0.0728089195692522 -0.0236173477579090 -0.958302940568827 -1.21215853890084 -0.0927339406610821 -0.0241322410952074 -2.07381062992001 -0.817052769060965 0.160184419719332 -1.51574866663716 0.271544806500984 -0.201141443291213 0.280248903464163 0.0518358487124614 -0.132216256515878 -0.756287941448548 -0.0810480243437454 0.198458568196489 0.111683421914695 -0.274399425732525 -1.80115888845707 -2.61299427175454 0.0971371151156721 0.588594191731103 0.215263407091728 0.129884433442281 -0.700372524523958 0.510027639098902 -0.114815961344813 -0.134360562670154 -0.124980904353961 -0.777479857767693 0.0131903589582884 0.0639040269156591 -0.252277408843003 -1.78061554158634 3.21318851887585 -0.311127561612797 -0.247178756913198 -1.10011238329199 -0.411598712561271 -0.413445110026636 -0.00616969859870642 -0.241375844992136 -0.343554393488413 -0.425038377036661 -0.415078836553142 -0.249766780277604 -0.701676159062412 -0.169309186567013 -0.188662027104210 -0.372542152737858 -0.482841610691922 -0.529974464580390 0.102151563434777 -0.265003361777860 -0.263260909516771 -0.293887288758782 -0.376986021100803 -0.313703492909971 -0.227239758622979 -3.04649055316883 -2.75159567317995 2.41617570469422 1.98598482282267 -0.743066541501110 -0.635644605314275 -3.44855641293600 -0.0169882343067578 -0.771035042648813 -0.355564660511442 -0.231392597356687 0.726291727706197 -0.255061087063078 0.212563992058598 0.549005604890797 -2.85601622272091 -3.57014459659599 -0.480186674680449 -0.771110117977307 -0.247794035802623 0.0374568243113248 -0.344090121795347 0.0384900917302514 -0.710391969563340 0.0626946994094451 -0.548022704982660 -5.36969917351165 -0.191498156694157 -0.182903146519489 0.217341862169790 -1.16022299647384 4.71122577594132 -0.372373112456691 -0.921900839537428 -5.49218875403590 -0.237302871870543 -1.43957182980033 -0.365365805649561 -0.292307065978963 -0.467309169335193 -0.995197182065425 -2.06452477999835 -1.46496927993701 -0.489270514691190 -0.358412137482480 -0.912486090223064 -0.176710042912980 -0.337584915122820 0.0733396578187656 -0.124486259590108 -0.364809611896695 -1.67402676832513 -0.545872274019328 -1.90040182578248 -0.0613790242220387 -0.170678175642913 -0.243569993035824 -0.373227930093187 -5.42866046413993 -0.455139153777591 0.0644045268400705 -1.28934057612567 -0.274948695469165 -0.281674479158075 -4.22044837142309 -0.333886235993858 -0.399517142365676 -0.0339934569014449 0.0709346550072612 -0.231361356198432 -0.507032422442644 -0.335134019362637 -0.206182393010303 -0.461191722352852 -0.356367986848426 0.851794038686677 0.111605543794519 -1.09458984992409 -0.279037831148989 -0.322400058819149 0.702235906121662 -0.502523057065595 -0.129820449942559 -0.366021026016218 -0.240983634357465 0.0137893190524541 -1.32611727347992 -6.44035586105724 -6.84586311279188 -0.156570471026929 -0.293296157500604 -0.118676011848914 -0.832878093475831 -2.77779901703325 -0.318895316990983 -3.99534785162401 -1.26585297201946 -0.529798139278572 -0.380504007055420 -0.482800678036401 -0.253934161187916 -0.319836163406119 -0.370004120931667 -1.02988861108129 -0.239737894680526 -0.368563787838681 -0.602971204705934 -0.267008160801418 -0.334083254360283 0.911753150450332 -0.0231076323657710 -0.345676412999819 -0.622617127519894 -0.487131567351160 -0.157879493837955 -2.72715381788123 -0.359046665504643 -0.375028645094089 -0.113210398259878 -0.0718908044685532 -1.13916326243273 -0.452297048503121 -0.590705976079677 -0.131714003389915 -1.64065337867507 1.24926205940454 -0.274377627444232 -0.256304162922872 0.494693357654023 -0.285356089350813 -0.119320397887151 -0.460306413333603 -0.238483777803925 -0.225051166148158 0.253439893262735 0.0505767445835303 0.0508241820969807 -0.196024108255601 -0.406136046393641 -0.468681521550355 -0.321381099270813 -0.0570981601843619 0.628214267725024 -0.386089619305216 -0.156113389899333 0.154182654700112 -0.223388070469037 -0.392960574053134 -0.0932597592733954 -0.659082192380055 -0.430855853203236 1.52243506314643 -1.99168497714697 -0.978545773727517 -0.201138846345926 0.00689000906176561 0.126474960345300 -0.376205772363583 0.153779442080052 -0.254600780331831 -0.510576022762788 -0.837827824794891 -0.0518793403843795 -0.572802566760435 -1.41896136015652 2.51989668560979 -2.34473754346273 -0.159493290526540 -0.778156069431812 -0.0573867634836896 -0.501954157553977 -0.687071821040223 -0.577905450194887 -0.486876126706114 -0.229507168399957 0.0979845772279926 -0.260357318527445 -0.258074423594945 0.128262161674185 -0.472776995472917 0.254025288635700 0.547797258406880 -0.606507493477736 -0.100608778780295 -0.261469012448234 -0.0855500976523379 -0.821099464191178 -0.0648521566814432 -0.0991990244059647 0.0817613628689084 -0.622495192393140 -0.878578365329047 -1.22948883240811 -0.256533656951367 -0.244178918703788 -0.228421889249169 -0.125024500548017 -1.01382391494250 -0.204306190500773 -0.238125003104395 -0.359360273404612 1.00529523406562 -0.332512698586648 -0.258723543865308 -0.370424118485750 -0.0738260555488832 -0.183905546704129 -0.304475468926014 -0.235039640016099 -0.0822680954733644 -1.18213210971189 0.538273529906039 -0.181388230320637 -0.148719054840768 -0.431729431360878 -0.379404628429440 -1.00914060292436 -0.497704084504448 -0.298582839064593 -0.0169118044872166 -0.101538201624972 -0.124581154249985 -0.241810680165133 -0.323319042928966 -0.316296242027841 -0.00482186970601089 -0.367336548222674 -1.63719178604077 -0.159382902564338 -0.132388468501613 -2.53948626578358 -0.347864915651861 -0.707972033933208 -0.294776056875498 -0.202899259795501 -0.560330621433601 5.56438332771450 -0.127199860468693 -0.314054451855739 0.0994489497573693 -0.0957769952473205 -0.350016991971750 -0.524574114248214 0.769619088229522 -0.162529741830511 0.943477269737192 0.387246440310977 -0.0464668077228891 -0.598079892554331 -0.205881208686979 -0.0851371561474208 -0.256458994304408 -0.0957295655736555 -0.373518484298458 0.0172562434468756 -0.221021420549823 -0.507461958787840 -0.161274943674504 -0.737209157893405 -2.13962670625987 -0.256524618474599 -0.479039947580839 -0.114332039698042 1.65056924675679 -0.0194592296152610 0.468713929760277 -0.254692065386288 -0.00247425734583769 -0.115887791427550 -0.283220402013925 3.71181812883657 -0.278309282517136 -0.163367056159635
